Time,Signal
0.0,-0.145
0.002777777777777778,0.02820508075688774
0.005555555555555556,0.028205080756887768
0.008333333333333333,-0.14499999999999988
0.011111111111111112,-0.3182050807568877
0.01388888888888889,-0.3182050807568877
0.016666666666666666,-0.1450000000000002
0.019444444444444445,0.028205080756887685
0.022222222222222223,0.053205080756887846
0.025,-0.13499999999999993
0.02777777777777778,-0.31820508075688775
0.030555555555555558,-0.3232050807568878
0.03333333333333333,-0.16000000000000045
0.036111111111111115,0.01820508075688776
0.03888888888888889,0.013205080756887866
0.04166666666666667,-0.17499999999999988
0.044444444444444446,-0.35320508075688756
0.04722222222222222,-0.35820508075688806
0.05,-0.17000000000000015
0.05277777777777778,0.018205080756887565
0.05555555555555556,-0.0017949192431122862
0.058333333333333334,-0.17999999999999983
0.061111111111111116,-0.3632050807568875
0.0638888888888889,-0.3532050807568877
0.06666666666666667,-0.15500000000000091
0.06944444444444445,0.03820508075688753
0.07222222222222223,0.01820508075688773
0.075,-0.18999999999999906
0.07777777777777778,-0.3782050807568875
0.08055555555555556,-0.4082050807568877
0.08333333333333334,-0.22500000000000026
0.08611111111111111,-0.07179491924311251
0.08888888888888889,-0.07679491924311188
0.09166666666666667,-0.26000000000000045
0.09444444444444444,-0.44820508075688714
0.09722222222222222,-0.4482050807568878
0.1,-0.2750000000000003
0.10277777777777779,-0.09179491924311256
0.10555555555555556,-0.08179491924311189
0.10833333333333334,-0.26499999999999896
0.11111111111111112,-0.4482050807568878
0.11388888888888889,-0.4632050807568885
0.11666666666666667,-0.2900000000000003
0.11944444444444445,-0.11679491924311253
0.12222222222222223,-0.11679491924311183
0.125,-0.2849999999999989
0.1277777777777778,-0.46820508075688777
0.13055555555555556,-0.47820508075688783
0.13333333333333333,-0.2850000000000018
0.13611111111111113,-0.1017949192431126
0.1388888888888889,-0.10179491924311185
0.14166666666666666,-0.2799999999999989
0.14444444444444446,-0.45820508075688776
0.14722222222222223,-0.47820508075688856
0.15,-0.29000000000000187
0.1527777777777778,-0.1267949192431126
0.15555555555555556,-0.10679491924311182
0.15833333333333333,-0.28999999999999737
0.16111111111111112,-0.4732050807568877
0.1638888888888889,-0.48820508075688857
0.16666666666666669,-0.3200000000000005
0.16944444444444445,-0.16179491924311265
0.17222222222222222,-0.18679491924311176
0.17500000000000002,-0.38500000000000023
0.17777777777777778,-0.558205080756887
0.18055555555555555,-0.5782050807568894
0.18333333333333335,-0.4549999999999991
0.18611111111111112,-0.31179491924311264
0.18888888888888888,-0.311794919243111
0.19166666666666668,-0.4249999999999987
0.19444444444444445,-0.5032050807568877
0.19722222222222224,-0.3932050807568872
0.2,-0.07000000000000059
0.20277777777777778,0.2932050807568866
0.20555555555555557,0.5482050807568883
0.20833333333333334,0.6199999999999999
0.2111111111111111,0.606794919243113
0.2138888888888889,0.6667949192431121
0.21666666666666667,0.7649999999999979
0.21944444444444444,0.6932050807568874
0.22222222222222224,0.3432050807568876
0.225,-0.16499999999999865
0.22777777777777777,-0.5382050807568862
0.23055555555555557,-0.6082050807568886
0.23333333333333334,-0.42500000000000066
0.23611111111111113,-0.19679491924311202
0.2388888888888889,-0.15679491924311167
0.24166666666666667,-0.3249999999999972
0.24444444444444446,-0.508205080756887
0.24722222222222223,-0.518205080756888
0.25,-0.3300000000000022
0.25277777777777777,-0.1517949192431142
0.2555555555555556,-0.14179491924311236
0.25833333333333336,-0.30999999999999855
0.2611111111111111,-0.4932050807568876
0.2638888888888889,-0.5082050807568887
0.26666666666666666,-0.34000000000000363
0.26944444444444443,-0.1517949192431135
0.27222222222222225,-0.1717949192431116
0.275,-0.3349999999999999
0.2777777777777778,-0.5032050807568869
0.28055555555555556,-0.5082050807568894
0.2833333333333333,-0.3300000000000023
0.28611111111111115,-0.1517949192431114
0.2888888888888889,-0.15679491924311234
0.2916666666666667,-0.32999999999999846
0.29444444444444445,-0.5182050807568861
0.2972222222222222,-0.5282050807568888
0.3,-0.33500000000000374
0.3027777777777778,-0.15179491924311211
0.3055555555555556,-0.13179491924311157
0.30833333333333335,-0.3199999999999998
0.3111111111111111,-0.49320508075688685
0.3138888888888889,-0.5032050807568895
0.31666666666666665,-0.34000000000000524
0.3194444444444445,-0.16179491924311287
0.32222222222222224,-0.1667949192431123
0.325,-0.3449999999999983
0.3277777777777778,-0.5282050807568861
0.33055555555555555,-0.5282050807568888
0.33333333333333337,-0.340000000000001
0.33611111111111114,-0.15679491924311217
0.3388888888888889,-0.15679491924311154
0.3416666666666667,-0.3299999999999969
0.34444444444444444,-0.5132050807568868
0.3472222222222222,-0.523205080756891
0.35000000000000003,-0.3249999999999996
0.3527777777777778,-0.15179491924311433
0.35555555555555557,-0.1567949192431108
0.35833333333333334,-0.32999999999999824
0.3611111111111111,-0.5082050807568846
0.36388888888888893,-0.5082050807568874
0.3666666666666667,-0.33999999999999825
0.36944444444444446,-0.15679491924311365
0.37222222222222223,-0.1667949192431115
0.375,-0.3499999999999939
0.37777777777777777,-0.5282050807568852
0.3805555555555556,-0.5232050807568868
0.38333333333333336,-0.3450000000000025
0.3861111111111111,-0.15679491924311295
0.3888888888888889,-0.14679491924311217
0.39166666666666666,-0.3349999999999953
0.3944444444444445,-0.5032050807568889
0.39722222222222225,-0.5182050807568889
0.4,-0.3300000000000012
0.4027777777777778,-0.1617949192431123
0.40555555555555556,-0.16179491924311
0.4083333333333333,-0.34499999999999664
0.41111111111111115,-0.5182050807568866
0.4138888888888889,-0.5282050807568882
0.4166666666666667,-0.3399999999999998
0.41944444444444445,-0.16679491924311446
0.4222222222222222,-0.1617949192431107
0.425,-0.3299999999999981
0.4277777777777778,-0.5232050807568873
0.4305555555555556,-0.5232050807568875
0.43333333333333335,-0.3450000000000041
0.4361111111111111,-0.16179491924311376
0.4388888888888889,-0.1617949192431114
0.4416666666666667,-0.3349999999999994
0.4444444444444445,-0.523205080756888
0.44722222222222224,-0.5282050807568897
0.45,-0.3550000000000027
0.4527777777777778,-0.17179491924311302
0.45555555555555555,-0.1717949192431092
0.45833333333333337,-0.3350000000000008
0.46111111111111114,-0.5232050807568859
0.4638888888888889,-0.533205080756889
0.4666666666666667,-0.3600000000000014
0.46944444444444444,-0.1867949192431152
0.47222222222222227,-0.19179491924311276
0.47500000000000003,-0.35999999999999643
0.4777777777777778,-0.5432050807568866
0.48055555555555557,-0.5582050807568883
0.48333333333333334,-0.37000000000000566
0.4861111111111111,-0.1867949192431145
0.48888888888888893,-0.1817949192431106
0.4916666666666667,-0.3599999999999978
0.49444444444444446,-0.5482050807568872
0.49722222222222223,-0.5482050807568905
0.5,-0.3650000000000043
0.5027777777777778,-0.19179491924311382
0.5055555555555555,-0.18679491924310843
0.5083333333333333,-0.3599999999999935
0.5111111111111112,-0.5382050807568879
0.513888888888889,-0.5432050807568869
0.5166666666666667,-0.3550000000000029
0.5194444444444445,-0.15679491924311315
0.5222222222222223,-0.15179491924311198
0.525,-0.3249999999999949
0.5277777777777778,-0.5082050807568859
0.5305555555555556,-0.5132050807568891
0.5333333333333333,-0.3150000000000073
0.5361111111111111,-0.12679491924311528
0.5388888888888889,-0.1267949192431098
0.5416666666666667,-0.2900000000000019
0.5444444444444445,-0.46820508075688644
0.5472222222222223,-0.4632050807568884
0.55,-0.2850000000000002
0.5527777777777778,-0.10179491924311462
0.5555555555555556,-0.0817949192431105
0.5583333333333333,-0.24999999999999764
0.5611111111111111,-0.42320508075688434
0.5638888888888889,-0.4382050807568906
0.5666666666666667,-0.2550000000000045
0.5694444444444444,-0.07179491924311676
0.5722222222222223,-0.05679491924311403
0.5750000000000001,-0.24499999999999902
0.5777777777777778,-0.41820508075688784
0.5805555555555556,-0.4282050807568899
0.5833333333333334,-0.2550000000000031
0.5861111111111111,-0.06679491924311323
0.5888888888888889,-0.07679491924310902
0.5916666666666667,-0.25499999999999473
0.5944444444444444,-0.41820508075688567
0.5972222222222222,-0.42820508075689206
0.6,-0.25000000000000744
0.6027777777777777,-0.0767949192431154
0.6055555555555556,-0.09179491924311256
0.6083333333333334,-0.2600000000000018
0.6111111111111112,-0.43320508075688635
0.6138888888888889,-0.4382050807568886
0.6166666666666667,-0.2700000000000004
0.6194444444444445,-0.09179491924311473
0.6222222222222222,-0.08679491924311042
0.625,-0.27499999999999747
0.6277777777777778,-0.45320508075688426
0.6305555555555555,-0.46320508075689065
0.6333333333333333,-0.2750000000000104
0.6361111111111112,-0.0967949192431112
0.638888888888889,-0.08679491924311111
0.6416666666666667,-0.27999999999999886
0.6444444444444445,-0.45320508075688776
0.6472222222222223,-0.45820508075689
0.65,-0.27500000000000335
0.6527777777777778,-0.10179491924311335
0.6555555555555556,-0.09179491924310892
0.6583333333333333,-0.2699999999999945
0.6611111111111111,-0.45820508075688554
0.6638888888888889,-0.46320508075689215
0.6666666666666667,-0.28000000000000197
0.6694444444444445,-0.10179491924311268
0.6722222222222223,-0.11179491924311241
0.675,-0.2799999999999959
0.6777777777777778,-0.4732050807568863
0.6805555555555556,-0.4732050807568886
0.6833333333333333,-0.30500000000000627
0.6861111111111111,-0.12179491924311764
0.6888888888888889,-0.1267949192431103
0.6916666666666667,-0.30999999999999156
0.6944444444444444,-0.4832050807568813
0.6972222222222223,-0.47820508075688506
0.7000000000000001,-0.2949999999999992
0.7027777777777778,-0.11179491924311408
0.7055555555555556,-0.11179491924310811
0.7083333333333334,-0.2899999999999986
0.7111111111111111,-0.4682050807568848
0.7138888888888889,-0.48320508075689295
0.7166666666666667,-0.29000000000000353
0.7194444444444444,-0.12179491924311625
0.7222222222222222,-0.12679491924310599
0.725,-0.30499999999999433
0.7277777777777779,-0.48320508075688834
0.7305555555555556,-0.4982050807568894
0.7333333333333334,-0.30999999999999645
0.7361111111111112,-0.12679491924311276
0.7388888888888889,-0.1167949192431095
0.7416666666666667,-0.3100000000000014
0.7444444444444445,-0.4982050807568862
0.7472222222222222,-0.5032050807568915
0.75,-0.31500000000001216
0.7527777777777778,-0.1267949192431149
0.7555555555555555,-0.13179491924310735
0.7583333333333334,-0.30999999999999706
0.7611111111111112,-0.49320508075688974
0.763888888888889,-0.5032050807568881
0.7666666666666667,-0.3250000000000051
0.7694444444444445,-0.14179491924311138
0.7722222222222223,-0.13679491924311088
0.775,-0.3049999999999927
0.7777777777777778,-0.47820508075688756
0.7805555555555556,-0.48320508075689017
0.7833333333333333,-0.30000000000000937
0.7861111111111111,-0.13179491924311354
0.788888888888889,-0.11679491924311441
0.7916666666666667,-0.29999999999999977
0.7944444444444445,-0.4732050807568854
0.7972222222222223,-0.47820508075688667
0.8,-0.3050000000000023
0.8027777777777778,-0.11679491924311566
0.8055555555555556,-0.1067949192431123
0.8083333333333333,-0.2949999999999955
0.8111111111111111,-0.4782050807568832
0.8138888888888889,-0.48820508075688884
0.8166666666666667,-0.30500000000000665
0.8194444444444445,-0.12179491924311214
0.8222222222222223,-0.11679491924311008
0.8250000000000001,-0.2800000000000026
0.8277777777777778,-0.4432050807568868
0.8305555555555556,-0.44820508075689103
0.8333333333333334,-0.27499999999999963
0.8361111111111111,-0.09679491924311434
0.8388888888888889,-0.07679491924310794
0.8416666666666667,-0.24999999999999822
0.8444444444444444,-0.42820508075688457
0.8472222222222222,-0.3982050807568931
0.85,-0.22000000000000391
0.8527777777777779,-0.03179491924311076
0.8555555555555556,-0.026794919243111476
0.8583333333333334,-0.2049999999999939
0.8611111111111112,-0.3882050807568881
0.8638888888888889,-0.4032050807568896
0.8666666666666667,-0.22000000000000824
0.8694444444444445,-0.05179491924311294
0.8722222222222222,-0.05179491924310933
0.875,-0.22499999999998962
0.8777777777777778,-0.403205080756886
0.8805555555555555,-0.40820508075689177
0.8833333333333334,-0.24000000000000116
0.8861111111111112,-0.06179491924311509
0.888888888888889,-0.046794919243112854
0.8916666666666667,-0.20999999999999666
0.8944444444444445,-0.3782050807568838
0.8972222222222223,-0.4182050807568882
0.9,-0.28500000000000547
0.9027777777777778,-0.11179491924311724
0.9055555555555556,-0.12679491924311068
0.9083333333333333,-0.30999999999999234
0.9111111111111111,-0.5032050807568818
0.913888888888889,-0.5032050807568904
0.9166666666666667,-0.32499999999999846
0.9194444444444445,-0.14179491924311374
0.9222222222222223,-0.14679491924310856
0.925,-0.3149999999999994
0.9277777777777778,-0.4982050807568852
0.9305555555555556,-0.5132050807568926
0.9333333333333333,-0.3450000000000027
0.9361111111111111,-0.1667949192431159
0.9388888888888889,-0.1667949192431064
0.9416666666666667,-0.3499999999999951
0.9444444444444445,-0.5182050807568888
0.9472222222222223,-0.528205080756889
0.9500000000000001,-0.33000000000000707
0.9527777777777778,-0.16179491924311237
0.9555555555555556,-0.15679491924310993
0.9583333333333334,-0.3199999999999908
0.9611111111111111,-0.5182050807568865
0.9638888888888889,-0.5282050807568912
0.9666666666666667,-0.3400000000000114
0.9694444444444444,-0.15679491924311453
0.9722222222222222,-0.15179491924310778
0.9750000000000001,-0.32999999999999785
0.9777777777777779,-0.5232050807568844
0.9805555555555556,-0.5382050807568877
0.9833333333333334,-0.3600000000000043
0.9861111111111112,-0.20679491924311666
0.9888888888888889,-0.25179491924311126
0.9916666666666667,-0.4449999999999935
0.9944444444444445,-0.6482050807568822
0.9972222222222222,-0.6832050807568898
1.0,-0.5350000000000087
1.0027777777777778,-0.3317949192431188
1.0055555555555555,-0.24179491924310909
1.0083333333333333,-0.2999999999999892
1.011111111111111,-0.3332050807568801
1.0138888888888888,-0.18820508075689196
1.0166666666666666,0.23499999999998705
1.0194444444444444,0.663205080756879
1.0222222222222224,0.8932050807568873
1.0250000000000001,0.8750000000000038
1.027777777777778,0.7667949192431106
1.0305555555555557,0.7317949192431116
1.0333333333333334,0.7549999999999941
1.0361111111111112,0.6632050807568882
1.038888888888889,0.3382050807568895
1.0416666666666667,-0.10999999999999197
1.0444444444444445,-0.44320508075688714
1.0472222222222223,-0.5632050807568906
1.05,-0.4500000000000102
1.0527777777777778,-0.3017949192431139
1.0555555555555556,-0.28179491924310834
1.0583333333333333,-0.42499999999998767
1.0611111111111111,-0.563205080756885
1.0638888888888889,-0.5632050807568928
1.0666666666666667,-0.3850000000000145
1.0694444444444444,-0.2167949192431161
1.0722222222222222,-0.2067949192431062
1.075,-0.37999999999998335
1.0777777777777777,-0.5532050807568829
1.0805555555555555,-0.5682050807568949
1.0833333333333335,-0.38499999999999607
1.0861111111111112,-0.21179491924311256
1.088888888888889,-0.21179491924310972
1.0916666666666668,-0.3750000000000018
1.0944444444444446,-0.5682050807568864
1.0972222222222223,-0.5832050807568914
1.1,-0.41000000000000036
1.1027777777777779,-0.22679491924311473
1.1055555555555556,-0.22179491924310757
1.1083333333333334,-0.38999999999999746
1.1111111111111112,-0.5782050807568843
1.113888888888889,-0.5682050807568936
1.1166666666666667,-0.3850000000000047
1.1194444444444445,-0.20179491924311688
1.1222222222222222,-0.21679491924310543
1.125,-0.38999999999999313
1.1277777777777778,-0.578205080756882
1.1305555555555555,-0.5832050807568956
1.1333333333333333,-0.41000000000000897
1.136111111111111,-0.21679491924311903
1.1388888888888888,-0.21679491924310326
1.1416666666666666,-0.39499999999998886
1.1444444444444446,-0.5782050807568913
1.1472222222222224,-0.5882050807568864
1.1500000000000001,-0.40000000000000197
1.152777777777778,-0.23679491924310977
1.1555555555555557,-0.23179491924311246
1.1583333333333334,-0.40999999999999587
1.1611111111111112,-0.5882050807568834
1.163888888888889,-0.5832050807568886
1.1666666666666667,-0.4000000000000063
1.1694444444444445,-0.22679491924311768
1.1722222222222223,-0.22179491924311032
1.175,-0.3899999999999916
1.1777777777777778,-0.5782050807568813
1.1805555555555556,-0.5832050807568907
1.1833333333333333,-0.3900000000000106
1.1861111111111111,-0.2167949192431198
1.1888888888888889,-0.21179491924310814
1.1916666666666667,-0.3849999999999873
1.1944444444444444,-0.5832050807568792
1.1972222222222222,-0.5782050807568929
1.2,-0.3950000000000149
1.2027777777777777,-0.21679491924312197
1.2055555555555555,-0.201794919243106
1.2083333333333335,-0.3900000000000057
1.2111111111111112,-0.5682050807568884
1.213888888888889,-0.5832050807568894
1.2166666666666668,-0.39999999999999647
1.2194444444444446,-0.21679491924311278
1.2222222222222223,-0.21679491924310954
1.225,-0.3850000000000014
1.2277777777777779,-0.5782050807568861
1.2305555555555556,-0.5882050807568915
1.2333333333333334,-0.41500000000000076
1.2361111111111112,-0.22679491924311493
1.238888888888889,-0.22179491924310737
1.2416666666666667,-0.4049999999999971
1.2444444444444445,-0.5882050807568839
1.2472222222222222,-0.5932050807568937
1.25,-0.4200000000000051
1.2527777777777778,-0.23679491924311705
1.2555555555555555,-0.2417949192431052
1.2583333333333333,-0.4249999999999814
1.261111111111111,-0.5932050807568818
1.2638888888888888,-0.6082050807568959
1.2666666666666666,-0.43000000000002075
1.2694444444444446,-0.25679491924311354
1.2722222222222224,-0.24679491924311442
1.2750000000000001,-0.42999999999999977
1.277777777777778,-0.6232050807568854
1.2805555555555557,-0.6282050807568866
1.2833333333333334,-0.45000000000000234
1.2861111111111112,-0.2617949192431157
1.288888888888889,-0.2717949192431123
1.2916666666666667,-0.4499999999999955
1.2944444444444445,-0.6282050807568833
1.2972222222222223,-0.6432050807568888
1.3,-0.4600000000000067
1.3027777777777778,-0.28179491924311784
1.3055555555555556,-0.2767949192431101
1.3083333333333333,-0.4549999999999912
1.3111111111111111,-0.643205080756881
1.3138888888888889,-0.648205080756891
1.3166666666666667,-0.460000000000011
1.3194444444444444,-0.27679491924312
1.3222222222222222,-0.27179491924310795
1.325,-0.43999999999998685
1.3277777777777777,-0.6082050807568788
1.3305555555555557,-0.6132050807568874
1.3333333333333335,-0.4100000000000039
1.3361111111111112,-0.2217949192431108
1.338888888888889,-0.19679491924311146
1.3416666666666668,-0.36499999999999394
1.3444444444444446,-0.5332050807568881
1.3472222222222223,-0.5382050807568896
1.35,-0.34000000000000824
1.3527777777777779,-0.15179491924311295
1.3555555555555556,-0.14179491924310933
1.3583333333333334,-0.3199999999999896
1.3611111111111112,-0.503205080756886
1.363888888888889,-0.5032050807568975
1.3666666666666667,-0.32000000000001255
1.3694444444444445,-0.1367949192431151
1.3722222222222222,-0.12679491924310146
1.375,-0.2999999999999853
1.3777777777777778,-0.49320508075688385
1.3805555555555555,-0.4932050807568996
1.3833333333333333,-0.3150000000000169
1.386111111111111,-0.13179491924311726
1.3888888888888888,-0.13179491924309933
1.3916666666666668,-0.2950000000000037
1.3944444444444446,-0.49320508075689307
1.3972222222222224,-0.5032050807568904
1.4000000000000001,-0.30499999999999844
1.402777777777778,-0.13679491924310805
1.4055555555555557,-0.12679491924310854
1.4083333333333334,-0.2999999999999994
1.4111111111111112,-0.4932050807568795
1.413888888888889,-0.49820508075689257
1.4166666666666667,-0.3100000000000027
1.4194444444444445,-0.13179491924312156
1.4222222222222223,-0.1417949192431064
1.425,-0.3049999999999951
1.4277777777777778,-0.48820508075687735
1.4305555555555556,-0.4882050807568947
1.4333333333333333,-0.31000000000000705
1.4361111111111111,-0.12179491924312372
1.4388888888888889,-0.1167949192431042
1.4416666666666667,-0.3049999999999908
1.4444444444444444,-0.4832050807568752
1.4472222222222222,-0.49320508075689684
1.45,-0.3150000000000114
1.4527777777777777,-0.12679491924312586
1.4555555555555557,-0.14179491924311344
1.4583333333333335,-0.3150000000000092
1.4611111111111112,-0.4882050807568844
1.463888888888889,-0.5032050807568876
1.4666666666666668,-0.31499999999999295
1.4694444444444446,-0.14679491924311666
1.4722222222222223,-0.14179491924311127
1.475,-0.3250000000000049
1.4777777777777779,-0.5082050807568823
1.4805555555555556,-0.5132050807568898
1.4833333333333334,-0.3349999999999973
1.4861111111111112,-0.16179491924311884
1.488888888888889,-0.15679491924310912
1.4916666666666667,-0.3250000000000006
1.4944444444444445,-0.5182050807568801
1.4972222222222222,-0.523205080756892
1.5,-0.3450000000000243
1.5027777777777778,-0.161794919243121
1.5055555555555555,-0.15679491924310698
1.5083333333333333,-0.32999999999997354
1.511111111111111,-0.5182050807568779
1.5138888888888888,-0.5182050807568941
1.5166666666666668,-0.34500000000000586
1.5194444444444446,-0.14679491924311178
1.5222222222222224,-0.1567949192431162
1.5250000000000001,-0.33499999999999197
1.527777777777778,-0.5132050807568872
1.5305555555555557,-0.5282050807568849
1.5333333333333334,-0.33500000000001023
1.5361111111111112,-0.15679491924311395
1.538888888888889,-0.15679491924311403
1.5416666666666667,-0.3349999999999877
1.5444444444444445,-0.528205080756885
1.5472222222222223,-0.5332050807568871
1.55,-0.35500000000001447
1.5527777777777778,-0.17679491924311608
1.5555555555555556,-0.1667949192431119
1.5583333333333333,-0.3449999999999833
1.5611111111111111,-0.5182050807568828
1.5638888888888889,-0.5182050807568892
1.5666666666666667,-0.3450000000000188
1.5694444444444444,-0.15679491924311825
1.5722222222222222,-0.15679491924310973
1.575,-0.33499999999997904
1.577777777777778,-0.5182050807568921
1.5805555555555557,-0.5232050807568913
1.5833333333333335,-0.35000000000000037
1.5861111111111112,-0.16679491924310905
1.588888888888889,-0.15679491924310757
1.5916666666666668,-0.3449999999999974
1.5944444444444446,-0.5182050807568899
1.5972222222222223,-0.5282050807568935
1.6,-0.3500000000000047
1.6027777777777779,-0.1667949192431112
1.6055555555555556,-0.15679491924310543
1.6083333333333334,-0.33999999999999314
1.6111111111111112,-0.5132050807568878
1.613888888888889,-0.5132050807568957
1.6166666666666667,-0.330000000000009
1.6194444444444445,-0.16179491924311334
1.6222222222222222,-0.15679491924310326
1.625,-0.33499999999998886
1.6277777777777778,-0.5182050807568855
1.6305555555555555,-0.5182050807568979
1.6333333333333333,-0.34000000000001335
1.636111111111111,-0.1567949192431155
1.638888888888889,-0.14179491924311244
1.6416666666666668,-0.29500000000000726
1.6444444444444446,-0.4732050807568834
1.6472222222222224,-0.4682050807568886
1.6500000000000001,-0.28499999999999487
1.652777777777778,-0.10179491924311768
1.6555555555555557,-0.09179491924311031
1.6583333333333334,-0.26500000000000296
1.6611111111111112,-0.43820508075688125
1.663888888888889,-0.4282050807568908
1.6666666666666667,-0.24999999999999922
1.6694444444444445,-0.06679491924311978
1.6722222222222223,-0.05179491924310814
1.675,-0.21499999999999864
1.6777777777777778,-0.4132050807568791
1.6805555555555556,-0.4182050807568929
1.6833333333333333,-0.24000000000000352
1.6861111111111111,-0.07179491924312195
1.6888888888888889,-0.061794919243105983
1.6916666666666667,-0.2449999999999943
1.6944444444444444,-0.42320508075687696
1.6972222222222222,-0.44820508075689514
1.7,-0.27500000000000785
1.702777777777778,-0.09179491924311278
1.7055555555555557,-0.07679491924311521
1.7083333333333335,-0.22499999999999
1.7111111111111112,-0.3932050807568862
1.713888888888889,-0.4032050807568859
1.7166666666666668,-0.26500000000001217
1.7194444444444446,-0.09679491924311492
1.7222222222222223,-0.10679491924311307
1.725,-0.28499999999998565
1.7277777777777779,-0.478205080756884
1.7305555555555556,-0.49320508075688807
1.7333333333333334,-0.3400000000000165
1.7361111111111112,-0.1567949192431171
1.738888888888889,-0.1617949192431109
1.7416666666666667,-0.3349999999999814
1.7444444444444445,-0.5282050807568819
1.7472222222222222,-0.5432050807568902
1.75,-0.36000000000002075
1.7527777777777778,-0.17179491924311918
1.7555555555555555,-0.17679491924310872
1.7583333333333333,-0.35499999999997706
1.761111111111111,-0.5382050807568797
1.763888888888889,-0.5482050807568923
1.7666666666666668,-0.38000000000000234
1.7694444444444446,-0.19679491924311
1.7722222222222224,-0.19179491924310657
1.7750000000000001,-0.3649999999999955
1.777777777777778,-0.5532050807568889
1.7805555555555557,-0.5582050807568946
1.7833333333333334,-0.38000000000000667
1.7861111111111112,-0.20179491924311216
1.788888888888889,-0.1817949192431044
1.7916666666666667,-0.36999999999999117
1.7944444444444445,-0.5632050807568868
1.7972222222222223,-0.5782050807568967
1.8,-0.41000000000001097
1.8027777777777778,-0.2617949192431143
1.8055555555555556,-0.2917949192431023
1.8083333333333333,-0.48999999999998683
1.8111111111111111,-0.6932050807568846
1.8138888888888889,-0.7282050807568988
1.8166666666666667,-0.5700000000000153
1.8194444444444444,-0.35179491924311646
1.8222222222222222,-0.23179491924310014
1.8250000000000002,-0.2500000000000053
1.827777777777778,-0.2632050807568824
1.8305555555555557,-0.053205080756889594
1.8333333333333335,0.41000000000000314
1.8361111111111112,0.8632050807568813
1.838888888888889,1.0582050807568906
1.8416666666666668,0.959999999999999
1.8444444444444446,0.6767949192431197
1.8472222222222223,0.34679491924310824
1.85,0.04999999999999883
1.8527777777777779,-0.1467949192431208
1.8555555555555556,-0.32679491924310716
1.8583333333333334,-0.5049999999999967
1.8611111111111112,-0.6182050807568782
1.863888888888889,-0.5882050807568939
1.8666666666666667,-0.3950000000000055
1.8694444444444445,-0.21679491924312297
1.8722222222222222,-0.22179491924310502
1.875,-0.38999999999999235
1.8777777777777778,-0.568205080756876
1.8805555555555555,-0.5782050807568961
1.8833333333333333,-0.39500000000000984
1.8861111111111113,-0.23179491924311377
1.888888888888889,-0.21679491924311423
1.8916666666666668,-0.3949999999999881
1.8944444444444446,-0.5682050807568853
1.8972222222222224,-0.5832050807568868
1.9000000000000001,-0.4050000000000141
1.902777777777778,-0.2267949192431159
1.9055555555555557,-0.2267949192431121
1.9083333333333334,-0.4149999999999837
1.9111111111111112,-0.578205080756883
1.913888888888889,-0.5932050807568889
1.9166666666666667,-0.4150000000000184
1.9194444444444445,-0.23179491924311807
1.9222222222222223,-0.23179491924310994
1.925,-0.4199999999999794
1.9277777777777778,-0.5932050807568809
1.9305555555555556,-0.6082050807568912
1.9333333333333333,-0.42000000000002274
1.9361111111111111,-0.23679491924312018
1.9388888888888889,-0.23679491924310775
1.9416666666666667,-0.40499999999997516
1.9444444444444444,-0.5982050807568787
1.9472222222222222,-0.6032050807568934
1.9500000000000002,-0.4200000000000043
1.952777777777778,-0.24179491924311097
1.9555555555555557,-0.23679491924310556
1.9583333333333335,-0.40999999999999354
1.9611111111111112,-0.5982050807568879
1.963888888888889,-0.5932050807568955
1.9666666666666668,-0.4000000000000086
1.9694444444444446,-0.22179491924311315
1.9722222222222223,-0.22679491924310347
1.975,-0.39999999999998925
1.9777777777777779,-0.5682050807568858
1.9805555555555556,-0.5882050807568976
1.9833333333333334,-0.40500000000001296
1.9861111111111112,-0.2167949192431153
1.988888888888889,-0.2267949192431013
1.9916666666666667,-0.3999999999999849
1.9944444444444445,-0.5882050807568836
1.9972222222222222,-0.5982050807568997
2.0,-0.42500000000001725
2.0027777777777778,-0.2417949192431174
2.0055555555555555,-0.2417949192430991
2.0083333333333333,-0.40999999999998055
2.011111111111111,-0.5982050807568815
2.013888888888889,-0.5982050807569019
2.0166666666666666,-0.4200000000000215
2.0194444444444444,-0.2417949192431196
2.022222222222222,-0.226794919243097
2.025,-0.3999999999999763
2.0277777777777777,-0.5832050807568793
2.0305555555555554,-0.5982050807569042
2.033333333333333,-0.41000000000002584
2.036111111111111,-0.2317949192431218
2.0388888888888888,-0.22179491924309483
2.041666666666667,-0.39999999999999475
2.0444444444444447,-0.5732050807568886
2.0472222222222225,-0.5782050807568836
2.0500000000000003,-0.38500000000000745
2.052777777777778,-0.22679491924311257
2.055555555555556,-0.21679491924311542
2.0583333333333336,-0.3899999999999904
2.0611111111111113,-0.5732050807568864
2.063888888888889,-0.5882050807568857
2.066666666666667,-0.4050000000000118
2.0694444444444446,-0.23179491924311474
2.0722222222222224,-0.23679491924311322
2.075,-0.41499999999998605
2.077777777777778,-0.5932050807568843
2.0805555555555557,-0.5932050807568878
2.0833333333333335,-0.4250000000000161
2.0861111111111112,-0.24179491924311686
2.088888888888889,-0.24179491924311108
2.091666666666667,-0.40999999999998177
2.0944444444444446,-0.6082050807568821
2.0972222222222223,-0.60320508075689
2.1,-0.43500000000002037
2.102777777777778,-0.246794919243119
2.1055555555555556,-0.24679491924310892
2.1083333333333334,-0.41999999999997745
2.111111111111111,-0.5932050807568798
2.113888888888889,-0.5982050807568922
2.1166666666666667,-0.4250000000000247
2.1194444444444445,-0.24179491924312116
2.1222222222222222,-0.2217949192431068
2.125,-0.39499999999997315
2.1277777777777778,-0.5632050807568778
2.1305555555555555,-0.5482050807568943
2.1333333333333333,-0.360000000000029
2.136111111111111,-0.16679491924312334
2.138888888888889,-0.16179491924310463
2.1416666666666666,-0.3299999999999689
2.1444444444444444,-0.5082050807568756
2.147222222222222,-0.5082050807568965
2.15,-0.3250000000000333
2.1527777777777777,-0.1467949192431255
2.1555555555555554,-0.13179491924310244
2.158333333333333,-0.3049999999999645
2.161111111111111,-0.4882050807568734
2.1638888888888888,-0.4832050807568986
2.166666666666667,-0.30499999999999217
2.1694444444444447,-0.12679491924311626
2.1722222222222225,-0.12679491924311165
2.1750000000000003,-0.30000000000000565
2.177777777777778,-0.4832050807568826
2.180555555555556,-0.4832050807568894
2.1833333333333336,-0.30999999999999645
2.1861111111111113,-0.14179491924311843
2.188888888888889,-0.1267949192431095
2.191666666666667,-0.3050000000000014
2.1944444444444446,-0.4882050807568805
2.1972222222222224,-0.49320508075689157
2.2,-0.3250000000000008
2.202777777777778,-0.1367949192431206
2.2055555555555557,-0.13179491924310735
2.2083333333333335,-0.30499999999999705
2.2111111111111112,-0.49320508075687836
2.213888888888889,-0.49820508075689374
2.216666666666667,-0.3050000000000051
2.2194444444444446,-0.13679491924312276
2.2222222222222223,-0.1217949192431052
2.225,-0.3099999999999927
2.227777777777778,-0.4982050807568762
2.2305555555555556,-0.503205080756896
2.2333333333333334,-0.3200000000000094
2.236111111111111,-0.1467949192431249
2.238888888888889,-0.14679491924310306
2.2416666666666667,-0.32499999999998846
2.2444444444444445,-0.523205080756874
2.2472222222222222,-0.523205080756898
2.25,-0.34000000000001374
2.2527777777777778,-0.16179491924312708
2.2555555555555555,-0.1567949192431009
2.2583333333333333,-0.33499999999998414
2.261111111111111,-0.5132050807568719
2.263888888888889,-0.5332050807569002
2.2666666666666666,-0.350000000000018
2.2694444444444444,-0.17679491924312918
2.272222222222222,-0.1817949192430987
2.275,-0.3599999999999798
2.2777777777777777,-0.5282050807568697
2.2805555555555554,-0.5382050807569023
2.283333333333333,-0.3550000000000223
2.286111111111111,-0.17679491924313134
2.288888888888889,-0.16679491924311934
2.291666666666667,-0.3549999999999982
2.2944444444444447,-0.5232050807568902
2.2972222222222225,-0.5382050807568818
2.3000000000000003,-0.36500000000000393
2.302777777777778,-0.17679491924311075
2.305555555555556,-0.18179491924311714
2.3083333333333336,-0.3499999999999939
2.3111111111111113,-0.5432050807568881
2.313888888888889,-0.5532050807568839
2.316666666666667,-0.3700000000000082
2.3194444444444446,-0.18679491924311292
2.3222222222222224,-0.19179491924310363
2.325,-0.3599999999999896
2.327777777777778,-0.538205080756886
2.3305555555555557,-0.5532050807568974
2.3333333333333335,-0.37000000000001254
2.3361111111111112,-0.1917949192431151
2.338888888888889,-0.17679491924310145
2.341666666666667,-0.34999999999998527
2.3444444444444446,-0.5232050807568838
2.3472222222222223,-0.5432050807568995
2.35,-0.36500000000001687
2.352777777777778,-0.17179491924311724
2.3555555555555556,-0.1717949192430993
2.3583333333333334,-0.33999999999998104
2.361111111111111,-0.5282050807568817
2.363888888888889,-0.5382050807569018
2.3666666666666667,-0.36000000000002114
2.3694444444444445,-0.1817949192431194
2.3722222222222222,-0.18179491924309715
2.375,-0.35499999999997667
2.3777777777777778,-0.5482050807568795
2.3805555555555555,-0.5582050807569039
2.3833333333333333,-0.35500000000002546
2.386111111111111,-0.18679491924312155
2.388888888888889,-0.181794919243095
2.3916666666666666,-0.35999999999997234
2.3944444444444444,-0.5332050807568773
2.397222222222222,-0.5432050807569061
2.4,-0.3600000000000298
2.4027777777777777,-0.1717949192431237
2.4055555555555554,-0.18179491924309285
2.408333333333333,-0.344999999999968
2.411111111111111,-0.5182050807568752
2.413888888888889,-0.5182050807568854
2.416666666666667,-0.33999999999998864
2.4194444444444447,-0.13679491924311452
2.4222222222222225,-0.13179491924311343
2.4250000000000003,-0.3050000000000092
2.427777777777778,-0.4832050807568844
2.430555555555556,-0.4782050807568876
2.4333333333333336,-0.28999999999999293
2.4361111111111113,-0.11179491924311663
2.438888888888889,-0.10179491924311129
2.441666666666667,-0.2800000000000049
2.4444444444444446,-0.45320508075688226
2.4472222222222224,-0.4482050807568898
2.45,-0.2649999999999973
2.452777777777778,-0.08179491924311882
2.4555555555555557,-0.0717949192431091
2.4583333333333335,-0.2600000000000006
2.4611111111111112,-0.43820508075688014
2.463888888888889,-0.44820508075689197
2.466666666666667,-0.2800000000000016
2.4694444444444446,-0.091794919243121
2.4722222222222223,-0.09679491924310699
2.475,-0.2749999999999963
2.477777777777778,-0.45320508075687793
2.4805555555555556,-0.44820508075689414
2.4833333333333334,-0.2800000000000059
2.486111111111111,-0.10179491924312314
2.488888888888889,-0.09179491924310482
2.4916666666666667,-0.25499999999999196
2.4944444444444445,-0.4132050807568758
2.4972222222222222,-0.43320508075689623
2.5,-0.28000000000001024
2.5027777777777778,-0.1367949192431253
2.5055555555555555,-0.13679491924310266
2.5083333333333333,-0.3449999999999649
2.511111111111111,-0.5332050807568736
2.513888888888889,-0.5532050807568984
2.5166666666666666,-0.38500000000003726
2.5194444444444444,-0.20679491924312746
2.522222222222222,-0.1967949192431005
2.525,-0.3749999999999606
2.5277777777777777,-0.5582050807568715
2.5305555555555554,-0.5632050807569006
2.533333333333333,-0.3950000000000416
2.5361111111111114,-0.2117949192431069
2.538888888888889,-0.21179491924310972
2.541666666666667,-0.3850000000000018
2.5444444444444447,-0.5682050807568921
2.5472222222222225,-0.5782050807568914
2.5500000000000003,-0.4000000000000004
2.552777777777778,-0.20179491924310902
2.555555555555556,-0.20179491924310755
2.5583333333333336,-0.38999999999999746
2.5611111111111113,-0.5682050807568899
2.563888888888889,-0.5882050807568935
2.566666666666667,-0.40500000000000475
2.5694444444444446,-0.2267949192431112
2.5722222222222224,-0.21679491924310543
2.575,-0.40499999999999314
2.577777777777778,-0.5982050807568877
2.5805555555555557,-0.6332050807568956
2.5833333333333335,-0.47500000000000897
2.5861111111111112,-0.33179491924311333
2.588888888888889,-0.33679491924310323
2.591666666666667,-0.5249999999999888
2.5944444444444446,-0.7132050807568856
2.5972222222222223,-0.7732050807568978
2.6,-0.6450000000000133
2.602777777777778,-0.4567949192431155
2.6055555555555556,-0.40179491924310107
2.6083333333333334,-0.4949999999999845
2.611111111111111,-0.5582050807568835
2.613888888888889,-0.4432050807569
2.6166666666666667,-0.11500000000001764
2.6194444444444445,0.2632050807568823
2.6222222222222222,0.5432050807569011
2.625,0.6350000000000198
2.6277777777777778,0.6367949192431188
2.6305555555555555,0.6867949192430979
2.6333333333333333,0.769999999999978
2.636111111111111,0.6482050807568802
2.638888888888889,0.23820508075690322
2.6416666666666666,-0.3049999999999759
2.6444444444444444,-0.6732050807568791
2.647222222222222,-0.6932050807569043
2.65,-0.47500000000002623
2.6527777777777777,-0.23679491924312193
2.6555555555555554,-0.21679491924309463
2.658333333333333,-0.3899999999999716
2.6611111111111114,-0.5732050807568884
2.663888888888889,-0.5832050807568837
2.666666666666667,-0.40500000000000785
2.6694444444444447,-0.21179491924311278
2.6722222222222225,-0.21679491924311522
2.6750000000000003,-0.39499999999999
2.677777777777778,-0.5782050807568861
2.680555555555556,-0.5832050807568858
2.6833333333333336,-0.4050000000000122
2.6861111111111113,-0.22679491924311493
2.688888888888889,-0.21679491924311306
2.691666666666667,-0.3949999999999857
2.6944444444444446,-0.583205080756884
2.6972222222222224,-0.588205080756888
2.7,-0.41000000000001646
2.702777777777778,-0.2217949192431171
2.7055555555555557,-0.2317949192431109
2.7083333333333335,-0.4099999999999814
2.7111111111111112,-0.5782050807568819
2.713888888888889,-0.5782050807568903
2.716666666666667,-0.41000000000002074
2.7194444444444446,-0.21679491924311922
2.7222222222222223,-0.21179491924310875
2.725,-0.38999999999999985
2.727777777777778,-0.5682050807568684
2.7305555555555556,-0.5732050807569038
2.7333333333333334,-0.4000000000000251
2.736111111111111,-0.2267949192431214
2.738888888888889,-0.2217949192431066
2.7416666666666667,-0.3949999999999955
2.7444444444444445,-0.5782050807568662
2.7472222222222222,-0.5782050807569059
2.75,-0.40000000000002944
2.7527777777777778,-0.22179491924312356
2.7555555555555555,-0.21179491924310445
2.7583333333333333,-0.3749999999999912
2.761111111111111,-0.558205080756864
2.763888888888889,-0.568205080756908
2.7666666666666666,-0.3900000000000337
2.7694444444444444,-0.21179491924312568
2.772222222222222,-0.20179491924310225
2.775,-0.38499999999998685
2.7777777777777777,-0.5682050807568619
2.7805555555555554,-0.5682050807569102
2.7833333333333337,-0.38499999999999257
2.7861111111111114,-0.2017949192431051
2.788888888888889,-0.20179491924312284
2.791666666666667,-0.3849999999999826
2.7944444444444447,-0.5682050807568825
2.7972222222222225,-0.5632050807568896
2.8000000000000003,-0.38999999999999685
2.802777777777778,-0.19179491924310724
2.805555555555556,-0.20179491924312068
2.8083333333333336,-0.38499999999997825
2.8111111111111113,-0.5682050807568804
2.813888888888889,-0.5532050807568918
2.816666666666667,-0.3850000000000012
2.8194444444444446,-0.2017949192431094
2.8222222222222224,-0.2067949192430958
2.825,-0.3899999999999739
2.827777777777778,-0.5532050807568781
2.8305555555555557,-0.5482050807568939
2.8333333333333335,-0.3750000000000055
2.8361111111111112,-0.20179491924311158
2.838888888888889,-0.20179491924309365
2.841666666666667,-0.37999999999996964
2.8444444444444446,-0.563205080756876
2.8472222222222223,-0.5632050807568961
2.85,-0.36500000000000976
2.852777777777778,-0.19679491924311374
2.8555555555555556,-0.20179491924309148
2.8583333333333334,-0.3849999999999653
2.861111111111111,-0.5632050807568738
2.863888888888889,-0.5632050807568982
2.8666666666666667,-0.3750000000000141
2.8694444444444445,-0.19179491924311587
2.8722222222222222,-0.21179491924308935
2.875,-0.379999999999961
2.8777777777777778,-0.5632050807568717
2.8805555555555555,-0.5482050807569003
2.8833333333333333,-0.37500000000001843
2.886111111111111,-0.19179491924311803
2.888888888888889,-0.19679491924308717
2.8916666666666666,-0.3849999999999567
2.8944444444444444,-0.5682050807568695
2.897222222222222,-0.5582050807569026
2.9,-0.38500000000002277
2.9027777777777777,-0.1967949192431202
2.9055555555555554,-0.191794919243085
2.9083333333333337,-0.36999999999999783
2.9111111111111114,-0.5482050807568901
2.913888888888889,-0.523205080756882
2.916666666666667,-0.3349999999999816
2.9194444444444447,-0.14679491924312235
2.9222222222222225,-0.14179491924310558
2.9250000000000003,-0.31999999999999357
2.927777777777778,-0.49820508075688796
2.930555555555556,-0.4882050807568841
2.9333333333333336,-0.2949999999999859
2.9361111111111113,-0.11179491924312449
2.938888888888889,-0.12679491924310343
2.941666666666667,-0.2949999999999892
2.9444444444444446,-0.45820508075688576
2.9472222222222224,-0.45820508075688626
2.95,-0.2799999999999902
2.952777777777778,-0.09679491924312666
2.9555555555555557,-0.1067949192431013
2.9583333333333335,-0.2899999999999849
2.9611111111111112,-0.4682050807568836
2.963888888888889,-0.4682050807568884
2.966666666666667,-0.2899999999999945
2.9694444444444446,-0.10679491924312884
2.9722222222222223,-0.1167949192430991
2.975,-0.29499999999998056
2.977777777777778,-0.48320508075688146
2.9805555555555556,-0.46820508075689055
2.9833333333333334,-0.2849999999999988
2.986111111111111,-0.106794919243131
2.988888888888889,-0.101794919243097
2.9916666666666667,-0.2949999999999763
2.9944444444444445,-0.4782050807568793
2.9972222222222222,-0.4732050807568927
3.0,-0.2950000000000486
3.0027777777777778,-0.12179491924313313
3.0055555555555555,-0.11179491924309479
3.0083333333333333,-0.29999999999997196
3.011111111111111,-0.4782050807568772
3.013888888888889,-0.4732050807568949
3.0166666666666666,-0.2950000000000529
3.0194444444444444,-0.1267949192431353
3.022222222222222,-0.13179491924309267
3.025,-0.31499999999996764
3.0277777777777777,-0.483205080756875
3.030555555555556,-0.48820508075689706
3.0333333333333337,-0.29500000000001175
3.0361111111111114,-0.1267949192431147
3.038888888888889,-0.13679491924311324
3.041666666666667,-0.33000000000000884
3.0444444444444447,-0.5132050807568956
3.0472222222222225,-0.5032050807568993
3.0500000000000003,-0.32000000000001605
3.052777777777778,-0.14679491924311688
3.055555555555556,-0.1417949192431111
3.0583333333333336,-0.3250000000000045
3.0611111111111113,-0.5082050807568934
3.063888888888889,-0.5032050807569014
3.066666666666667,-0.3150000000000204
3.0694444444444446,-0.14679491924311902
3.0722222222222224,-0.14679491924310895
3.075,-0.33000000000000024
3.077777777777778,-0.5182050807568912
3.0805555555555557,-0.5132050807569035
3.0833333333333335,-0.3350000000000247
3.0861111111111112,-0.1567949192431212
3.088888888888889,-0.1617949192431068
3.091666666666667,-0.34499999999999587
3.0944444444444446,-0.5232050807568891
3.0972222222222223,-0.5182050807569056
3.1,-0.34000000000002906
3.102777777777778,-0.16179491924312334
3.1055555555555556,-0.16179491924310463
3.1083333333333334,-0.3299999999999916
3.111111111111111,-0.508205080756887
3.113888888888889,-0.5132050807569078
3.1166666666666667,-0.3350000000000333
3.1194444444444445,-0.1467949192431255
3.1222222222222222,-0.16679491924310247
3.125,-0.3399999999999873
3.1277777777777778,-0.5232050807568848
3.1305555555555555,-0.53820508075691
3.1333333333333333,-0.3600000000000376
3.136111111111111,-0.17179491924312762
3.138888888888889,-0.17179491924310028
3.1416666666666666,-0.34999999999998294
3.1444444444444444,-0.5232050807568827
3.147222222222222,-0.5232050807569121
3.15,-0.340000000000042
3.1527777777777777,-0.16679491924312984
3.155555555555556,-0.17179491924312085
3.1583333333333337,-0.3449999999999786
3.1611111111111114,-0.5532050807568805
3.163888888888889,-0.5332050807568915
3.166666666666667,-0.36000000000000076
3.1694444444444447,-0.1717949192431092
3.1722222222222225,-0.1717949192431187
3.1750000000000003,-0.3499999999999743
3.177777777777778,-0.5282050807568783
3.180555555555556,-0.5182050807568936
3.1833333333333336,-0.3300000000000051
3.1861111111111113,-0.1567949192431114
3.188888888888889,-0.1617949192431166
3.191666666666667,-0.33499999999997004
3.1944444444444446,-0.5132050807568762
3.1972222222222224,-0.503205080756896
3.2,-0.3200000000000094
3.202777777777778,-0.11679491924311353
3.2055555555555557,-0.11679491924311441
3.2083333333333335,-0.2999999999999657
3.2111111111111112,-0.478205080756874
3.213888888888889,-0.45820508075689803
3.216666666666667,-0.28000000000001374
3.2194444444444446,-0.1017949192431157
3.2222222222222223,-0.1067949192431123
3.225,-0.2749999999999614
3.227777777777778,-0.44320508075687187
3.2305555555555556,-0.43820508075690023
3.2333333333333334,-0.25000000000001804
3.236111111111111,-0.05679491924311786
3.238888888888889,-0.0717949192431101
3.2416666666666667,-0.23999999999995708
3.2444444444444445,-0.4282050807568697
3.2472222222222222,-0.42820508075690233
3.25,-0.24500000000002234
3.2527777777777778,-0.06179491924311997
3.2555555555555555,-0.08179491924310794
3.2583333333333333,-0.2649999999999528
3.261111111111111,-0.4332050807568676
3.263888888888889,-0.4282050807569045
3.2666666666666666,-0.27000000000002666
3.2694444444444444,-0.09179491924312216
3.272222222222222,-0.1067949192431058
3.275,-0.25499999999994843
3.277777777777778,-0.4232050807568881
3.280555555555556,-0.4182050807568839
3.2833333333333337,-0.2649999999999855
3.2861111111111114,-0.10679491924312434
3.288888888888889,-0.12679491924310363
3.291666666666667,-0.3149999999999896
3.2944444444444447,-0.49820508075688597
3.2972222222222225,-0.5082050807568861
3.3000000000000003,-0.34499999999998976
3.302777777777778,-0.15679491924312647
3.305555555555556,-0.1617949192431015
3.3083333333333336,-0.34499999999998526
3.3111111111111113,-0.5332050807568838
3.313888888888889,-0.5232050807568882
3.316666666666667,-0.33999999999999414
3.3194444444444446,-0.16179491924312867
3.3222222222222224,-0.1717949192430993
3.325,-0.359999999999981
3.327777777777778,-0.5382050807568817
3.3305555555555557,-0.5482050807568903
3.3333333333333335,-0.36999999999999844
3.3361111111111112,-0.19179491924313077
3.338888888888889,-0.19179491924309716
3.341666666666667,-0.3799999999999767
3.3444444444444446,-0.5482050807568795
3.3472222222222223,-0.5482050807568926
3.35,-0.3650000000000027
3.352777777777778,-0.19679491924313294
3.3555555555555556,-0.186794919243095
3.3583333333333334,-0.36999999999997235
3.361111111111111,-0.5532050807568774
3.363888888888889,-0.5382050807568947
3.3666666666666667,-0.36000000000000704
3.3694444444444445,-0.17679491924313506
3.3722222222222222,-0.18179491924309285
3.375,-0.3699999999999681
3.3777777777777778,-0.5582050807568752
3.3805555555555555,-0.5682050807568969
3.3833333333333333,-0.4300000000000114
3.386111111111111,-0.27179491924313726
3.388888888888889,-0.31179491924309066
3.3916666666666666,-0.5149999999999637
3.3944444444444444,-0.738205080756873
3.397222222222222,-0.728205080756899
3.4,-0.47500000000001563
3.402777777777778,-0.18179491924311664
3.405555555555556,-0.04679491924311127
3.4083333333333337,-0.055000000000004906
3.4111111111111114,0.011794919243106383
3.413888888888889,0.3017949192430988
3.416666666666667,0.70499999999998
3.4194444444444447,0.9932050807568811
3.4222222222222225,0.9532050807568909
3.4250000000000003,0.5349999999999995
3.427777777777778,-0.02820508075689146
3.430555555555556,-0.37320508075690334
3.4333333333333336,-0.4200000000000243
3.4361111111111113,-0.326794919243121
3.438888888888889,-0.306794919243107
3.441666666666667,-0.4499999999999963
3.4444444444444446,-0.5832050807568893
3.4472222222222224,-0.5732050807569055
3.45,-0.3900000000000286
3.452777777777778,-0.21679491924312314
3.4555555555555557,-0.22679491924310483
3.4583333333333335,-0.404999999999992
3.4611111111111112,-0.5982050807568872
3.463888888888889,-0.5982050807569076
3.466666666666667,-0.40500000000003294
3.4694444444444446,-0.22179491924312533
3.4722222222222223,-0.2317949192431027
3.475,-0.4049999999999877
3.477777777777778,-0.588205080756885
3.4805555555555556,-0.5782050807569098
3.4833333333333334,-0.38500000000003726
3.486111111111111,-0.21679491924312747
3.488888888888889,-0.22179491924310052
3.4916666666666667,-0.39499999999998336
3.4944444444444445,-0.5682050807568828
3.4972222222222222,-0.568205080756912
3.5,-0.3850000000000416
3.5027777777777778,-0.21679491924312963
3.5055555555555555,-0.21679491924309835
3.5083333333333333,-0.39999999999997904
3.511111111111111,-0.5982050807568806
3.513888888888889,-0.583205080756914
3.5166666666666666,-0.4000000000000459
3.5194444444444444,-0.22179491924313177
3.522222222222222,-0.22679491924309622
3.5250000000000004,-0.40499999999997477
3.527777777777778,-0.5982050807568785
3.530555555555556,-0.5882050807568935
3.5333333333333337,-0.40500000000000475
3.5361111111111114,-0.2317949192431112
3.538888888888889,-0.2317949192431168
3.541666666666667,-0.4099999999999704
3.5444444444444447,-0.5882050807568764
3.5472222222222225,-0.5782050807568957
3.5500000000000003,-0.420000000000009
3.552777777777778,-0.23179491924311335
3.555555555555556,-0.2367949192431146
3.5583333333333336,-0.40999999999996606
3.5611111111111113,-0.5932050807568742
3.563888888888889,-0.5882050807568978
3.566666666666667,-0.40500000000001335
3.5694444444444446,-0.2217949192431155
3.5722222222222224,-0.22179491924311245
3.575,-0.3949999999999618
3.577777777777778,-0.573205080756872
3.5805555555555557,-0.5682050807569
3.5833333333333335,-0.39500000000001767
3.5861111111111112,-0.23179491924311768
3.588888888888889,-0.23179491924311033
3.591666666666667,-0.41999999999995746
3.5944444444444446,-0.60820508075687
3.5972222222222223,-0.5882050807569021
3.6,-0.40500000000002195
3.602777777777778,-0.2217949192431198
3.6055555555555556,-0.21679491924310815
3.6083333333333334,-0.41499999999995313
3.611111111111111,-0.5782050807568677
3.613888888888889,-0.5782050807569044
3.6166666666666667,-0.4000000000000263
3.6194444444444445,-0.22179491924312197
3.6222222222222222,-0.22179491924310601
3.625,-0.40499999999994885
3.6277777777777778,-0.5932050807568656
3.6305555555555555,-0.5882050807569064
3.6333333333333333,-0.4000000000000306
3.636111111111111,-0.22179491924312414
3.638888888888889,-0.22679491924310385
3.6416666666666666,-0.40499999999994457
3.6444444444444444,-0.5982050807568634
3.647222222222222,-0.5982050807569086
3.6500000000000004,-0.4249999999999894
3.652777777777778,-0.24679491924312627
3.655555555555556,-0.25179491924310166
3.6583333333333337,-0.4499999999999857
3.6611111111111114,-0.618205080756884
3.663888888888889,-0.6232050807568881
3.666666666666667,-0.4349999999999937
3.6694444444444447,-0.27179491924312843
3.6722222222222225,-0.29679491924309953
3.6750000000000003,-0.4549999999999814
3.677777777777778,-0.6332050807568819
3.680555555555556,-0.6132050807568902
3.6833333333333336,-0.43499999999999805
3.6861111111111113,-0.2517949192431306
3.688888888888889,-0.2567949192430974
3.691666666666667,-0.4449999999999771
3.6944444444444446,-0.6232050807568797
3.6972222222222224,-0.6182050807568924
3.7,-0.4300000000000023
3.702777777777778,-0.24679491924313274
3.7055555555555557,-0.2367949192430952
3.7083333333333335,-0.42499999999997273
3.7111111111111112,-0.5932050807568776
3.713888888888889,-0.5782050807568946
3.716666666666667,-0.38000000000000667
3.7194444444444446,-0.19679491924313489
3.7222222222222223,-0.19179491924309305
3.725,-0.36499999999996846
3.727777777777778,-0.5382050807568753
3.7305555555555556,-0.5182050807568966
3.7333333333333334,-0.330000000000011
3.736111111111111,-0.14179491924313706
3.738888888888889,-0.1317949192430909
3.7416666666666667,-0.30499999999996413
3.7444444444444445,-0.49320508075687325
3.7472222222222222,-0.48320508075689883
3.75,-0.31000000000001526
3.7527777777777778,-0.13179491924313919
3.7555555555555555,-0.13679491924308873
3.7583333333333333,-0.3149999999999598
3.761111111111111,-0.4932050807568711
3.763888888888889,-0.48820508075690094
3.7666666666666666,-0.3050000000000196
3.7694444444444444,-0.13179491924314135
3.7722222222222226,-0.12179491924310931
3.7750000000000004,-0.310000000000001
3.777777777777778,-0.4932050807568917
3.780555555555556,-0.4832050807568804
3.7833333333333337,-0.3150000000000239
3.7861111111111114,-0.12179491924312075
3.788888888888889,-0.12679491924310715
3.791666666666667,-0.30499999999999666
3.7944444444444447,-0.4732050807568895
3.7972222222222225,-0.4582050807568825
3.8000000000000003,-0.2800000000000282
3.802777777777778,-0.11679491924312294
3.805555555555556,-0.12179491924310498
3.8083333333333336,-0.30499999999999233
3.8111111111111113,-0.49820508075688735
3.813888888888889,-0.4782050807568847
3.816666666666667,-0.3000000000000325
3.8194444444444446,-0.12679491924312508
3.8222222222222224,-0.14179491924310286
3.825,-0.3249999999999881
3.827777777777778,-0.5082050807568852
3.8305555555555557,-0.4982050807569096
3.8333333333333335,-0.31500000000003686
3.8361111111111112,-0.14679491924312726
3.838888888888889,-0.16179491924310072
3.841666666666667,-0.32999999999998375
3.8444444444444446,-0.5132050807568831
3.8472222222222223,-0.4982050807569118
3.85,-0.32500000000004114
3.852777777777778,-0.14679491924312943
3.8555555555555556,-0.14179491924309856
3.8583333333333334,-0.3349999999999794
3.861111111111111,-0.508205080756881
3.863888888888889,-0.5182050807569138
3.8666666666666667,-0.3350000000000455
3.8694444444444445,-0.15179491924313157
3.8722222222222222,-0.1567949192430964
3.875,-0.31499999999997513
3.8777777777777778,-0.5082050807568788
3.8805555555555555,-0.5032050807569161
3.8833333333333333,-0.3300000000000498
3.886111111111111,-0.15679491924313374
3.888888888888889,-0.15679491924309424
3.8916666666666666,-0.3349999999999708
3.8944444444444444,-0.5132050807568767
3.8972222222222226,-0.5032050807568955
3.9000000000000004,-0.3200000000000086
3.902777777777778,-0.14179491924311313
3.905555555555556,-0.1517949192431148
3.9083333333333337,-0.33500000000001195
3.9111111111111114,-0.5282050807568743
3.913888888888889,-0.5182050807568976
3.916666666666667,-0.34000000000001296
3.9194444444444447,-0.16179491924311531
3.9222222222222225,-0.14679491924311266
3.9250000000000003,-0.32500000000000767
3.927777777777778,-0.5232050807568722
3.930555555555556,-0.5032050807568997
3.9333333333333336,-0.31500000000001727
3.9361111111111113,-0.14179491924311743
3.938888888888889,-0.1567949192431105
3.941666666666667,-0.33000000000000335
3.9444444444444446,-0.5082050807568701
3.9472222222222224,-0.508205080756902
3.95,-0.33000000000002155
3.952777777777778,-0.1567949192431196
3.9555555555555557,-0.15679491924310834
3.9583333333333335,-0.339999999999999
3.9611111111111112,-0.513205080756868
3.963888888888889,-0.5132050807569042
3.966666666666667,-0.3250000000000259
3.9694444444444446,-0.15179491924312177
3.9722222222222223,-0.1517949192431062
3.975,-0.3449999999999947
3.977777777777778,-0.5232050807568658
3.9805555555555556,-0.5132050807569063
3.9833333333333334,-0.3300000000000302
3.986111111111111,-0.14679491924312393
3.988888888888889,-0.13679491924310402
3.9916666666666667,-0.3049999999999904
3.9944444444444445,-0.47820508075686363
3.9972222222222222,-0.44820508075690846
4.0,-0.2700000000000345
4.002777777777778,-0.08179491924310334
4.0055555555555555,-0.0867949192431019
4.008333333333334,-0.2649999999999861
4.011111111111111,-0.4332050807568615
4.013888888888889,-0.42320508075688784
4.016666666666667,-0.2350000000000388
4.019444444444445,-0.061794919243105484
4.022222222222222,-0.046794919243099725
4.025,-0.23499999999998175
4.027777777777778,-0.40820508075685935
4.030555555555556,-0.39320508075689
4.033333333333333,-0.23000000000004314
4.036111111111111,-0.05179491924310767
4.038888888888889,-0.061794919243097546
4.041666666666667,-0.24499999999997746
4.044444444444444,-0.42820508075685715
4.0472222222222225,-0.4132050807568921
4.05,-0.23000000000004744
4.052777777777778,-0.05679491924310981
4.055555555555555,-0.0767949192430954
4.058333333333334,-0.25499999999997314
4.061111111111111,-0.42320508075685503
4.063888888888889,-0.4032050807568943
4.066666666666666,-0.20500000000005172
4.069444444444445,-0.02179491924311197
4.072222222222222,-0.03679491924309322
4.075,-0.22999999999996884
4.0777777777777775,-0.44320508075685283
4.080555555555556,-0.44320508075689646
4.083333333333334,-0.2850000000000106
4.086111111111111,-0.11179491924311408
4.0888888888888895,-0.13679491924311382
4.091666666666667,-0.32999999999996454
4.094444444444445,-0.5132050807568962
4.097222222222222,-0.5132050807568986
4.1000000000000005,-0.34500000000001485
4.102777777777778,-0.17679491924311624
4.105555555555556,-0.17679491924311164
4.108333333333333,-0.3399999999999602
4.111111111111112,-0.528205080756894
4.113888888888889,-0.5182050807569007
4.116666666666667,-0.34000000000001923
4.1194444444444445,-0.16679491924311846
4.122222222222223,-0.1717949192431095
4.125,-0.3549999999999559
4.127777777777778,-0.5432050807568919
4.1305555555555555,-0.5282050807569029
4.133333333333334,-0.37000000000002353
4.136111111111111,-0.17179491924312057
4.138888888888889,-0.16679491924310738
4.141666666666667,-0.3599999999999516
4.144444444444445,-0.5532050807568897
4.147222222222222,-0.5332050807569051
4.15,-0.3450000000000278
4.152777777777778,-0.17679491924312274
4.155555555555556,-0.1767949192431052
4.158333333333333,-0.35499999999994725
4.161111111111111,-0.5532050807568876
4.163888888888889,-0.5632050807569072
4.166666666666667,-0.39500000000003216
4.169444444444444,-0.2517949192431249
4.1722222222222225,-0.28179491924310307
4.175,-0.47499999999994297
4.177777777777778,-0.6832050807568855
4.180555555555555,-0.7182050807569095
4.183333333333334,-0.5400000000000365
4.186111111111111,-0.3217949192431498
4.188888888888889,-0.23179491924310092
4.191666666666666,-0.29499999999993864
4.194444444444445,-0.33320508075688327
4.197222222222222,-0.13320508075691154
4.2,0.31499999999995926
4.2027777777777775,0.768205080756848
4.205555555555556,0.9732050807569013
4.208333333333334,0.8849999999999747
4.211111111111111,0.6217949192431189
4.2138888888888895,0.346794919243109
4.216666666666667,0.12999999999995493
4.219444444444445,-0.04179491924310863
4.222222222222222,-0.25179491924309655
4.2250000000000005,-0.500000000000021
4.227777777777778,-0.6632050807568789
4.230555555555556,-0.6232050807568932
4.233333333333333,-0.4000000000000494
4.236111111111112,-0.21679491924311078
4.238888888888889,-0.22179491924309444
4.241666666666667,-0.39500000000001667
4.2444444444444445,-0.5732050807568768
4.247222222222223,-0.5632050807568953
4.25,-0.3800000000000537
4.252777777777778,-0.21179491924311294
4.2555555555555555,-0.21179491924309227
4.258333333333334,-0.4000000000000124
4.261111111111111,-0.5832050807568746
4.263888888888889,-0.5832050807568974
4.266666666666667,-0.390000000000058
4.269444444444445,-0.21679491924311511
4.272222222222222,-0.23179491924309015
4.275,-0.4050000000000081
4.277777777777778,-0.5882050807568724
4.280555555555556,-0.5832050807568996
4.283333333333333,-0.39500000000006236
4.286111111111111,-0.22179491924311728
4.288888888888889,-0.22679491924308798
4.291666666666667,-0.4150000000000037
4.294444444444444,-0.5882050807568703
4.2972222222222225,-0.5882050807569017
4.3,-0.40000000000006664
4.302777777777778,-0.21679491924311944
4.305555555555555,-0.2167949192430858
4.308333333333334,-0.40999999999999936
4.311111111111111,-0.5882050807568682
4.313888888888889,-0.5782050807569039
4.316666666666666,-0.39500000000007096
4.319444444444445,-0.22179491924312159
4.322222222222222,-0.22179491924308367
4.325,-0.40499999999999514
4.3277777777777775,-0.583205080756866
4.330555555555556,-0.583205080756906
4.333333333333334,-0.3999999999999843
4.336111111111111,-0.21679491924312375
4.3388888888888895,-0.22179491924310424
4.341666666666667,-0.40999999999999076
4.344444444444445,-0.5982050807568866
4.347222222222222,-0.5882050807569081
4.3500000000000005,-0.40499999999998865
4.352777777777778,-0.23679491924312585
4.355555555555556,-0.2317949192431021
4.358333333333333,-0.41499999999998644
4.361111111111112,-0.5982050807568844
4.363888888888889,-0.5982050807569104
4.366666666666667,-0.4099999999999929
4.3694444444444445,-0.22179491924312805
4.372222222222223,-0.21679491924309993
4.375,-0.3999999999999822
4.377777777777778,-0.5832050807568823
4.3805555555555555,-0.5832050807569125
4.383333333333334,-0.39999999999999725
4.386111111111111,-0.2167949192431302
4.388888888888889,-0.23679491924309773
4.391666666666667,-0.41999999999997784
4.394444444444445,-0.59320508075688
4.397222222222222,-0.5882050807569147
4.4,-0.41500000000000153
4.402777777777778,-0.23179491924313236
4.405555555555556,-0.24679491924309557
4.408333333333333,-0.4149999999999735
4.411111111111111,-0.598205080756878
4.413888888888889,-0.5832050807569168
4.416666666666667,-0.4000000000000059
4.419444444444444,-0.23179491924313453
4.4222222222222225,-0.22679491924309347
4.425,-0.39999999999996927
4.427777777777778,-0.5832050807568758
4.430555555555555,-0.573205080756919
4.433333333333334,-0.39500000000001023
4.436111111111111,-0.22179491924313666
4.438888888888889,-0.2317949192430913
4.441666666666666,-0.4099999999999649
4.444444444444445,-0.5982050807568736
4.447222222222222,-0.5982050807569211
4.45,-0.41000000000001446
4.452777777777778,-0.23679491924311608
4.455555555555556,-0.2467949192430891
4.458333333333334,-0.4300000000000061
4.461111111111111,-0.6182050807568715
4.4638888888888895,-0.6132050807568779
4.466666666666667,-0.4350000000000188
4.469444444444445,-0.25679491924311826
4.472222222222222,-0.25679491924308695
4.4750000000000005,-0.4500000000000018
4.477777777777778,-0.6182050807568693
4.480555555555556,-0.61820508075688
4.483333333333333,-0.43500000000002315
4.486111111111112,-0.26179491924312037
4.488888888888889,-0.27179491924308485
4.491666666666667,-0.43999999999999745
4.4944444444444445,-0.6232050807568672
4.497222222222223,-0.6032050807568822
4.5,-0.4300000000000274
4.502777777777778,-0.24179491924312252
4.5055555555555555,-0.2267949192430827
4.508333333333334,-0.39999999999999314
4.511111111111111,-0.558205080756865
4.513888888888889,-0.5382050807568843
4.516666666666667,-0.3350000000000318
4.519444444444445,-0.15679491924312472
4.522222222222222,-0.15179491924308053
4.525,-0.32999999999998886
4.527777777777778,-0.5032050807568629
4.530555555555556,-0.48320508075688645
4.533333333333333,-0.29500000000003607
4.536111111111111,-0.11179491924312684
4.538888888888889,-0.11679491924307833
4.541666666666667,-0.2899999999999845
4.544444444444444,-0.4832050807568607
4.5472222222222225,-0.4682050807568886
4.55,-0.28500000000004033
4.552777777777778,-0.10679491924312903
4.555555555555555,-0.12679491924307618
4.558333333333334,-0.28999999999998016
4.561111111111111,-0.4682050807568585
4.563888888888889,-0.46320508075689076
4.566666666666666,-0.2800000000000447
4.569444444444445,-0.1017949192431312
4.572222222222222,-0.10179491924307404
4.575,-0.2899999999999759
4.577777777777778,-0.4632050807569018
4.580555555555556,-0.4582050807568929
4.583333333333334,-0.2700000000000035
4.586111111111111,-0.09679491924313333
4.5888888888888895,-0.09679491924311737
4.591666666666667,-0.2749999999999716
4.594444444444445,-0.4632050807568997
4.597222222222222,-0.45820508075689503
4.6000000000000005,-0.27500000000000785
4.602777777777778,-0.10179491924313552
4.605555555555556,-0.11679491924311519
4.608333333333333,-0.29499999999996723
4.611111111111112,-0.47820508075689755
4.613888888888889,-0.4682050807568972
4.616666666666667,-0.29500000000001214
4.6194444444444445,-0.11179491924313761
4.622222222222223,-0.11679491924311303
4.625,-0.29999999999996296
4.627777777777778,-0.4782050807568954
4.6305555555555555,-0.4832050807568994
4.633333333333334,-0.29500000000001647
4.636111111111111,-0.1267949192431398
4.638888888888889,-0.13179491924311088
4.641666666666667,-0.30999999999995864
4.644444444444445,-0.49820508075687053
4.647222222222222,-0.49820508075690156
4.65,-0.31500000000002076
4.652777777777778,-0.13679491924314197
4.655555555555556,-0.14179491924310875
4.658333333333333,-0.3149999999999543
4.661111111111111,-0.49820508075686837
4.663888888888889,-0.4932050807569037
4.666666666666667,-0.3100000000000251
4.669444444444444,-0.1467949192431441
4.6722222222222225,-0.14179491924310658
4.675,-0.32999999999995006
4.677777777777778,-0.5032050807568662
4.680555555555555,-0.4932050807569059
4.683333333333334,-0.3100000000000294
4.686111111111111,-0.13679491924314627
4.688888888888889,-0.13679491924310444
4.691666666666666,-0.3299999999999457
4.694444444444445,-0.5082050807568641
4.697222222222222,-0.5032050807569081
4.7,-0.3200000000000337
4.702777777777778,-0.15179491924310295
4.705555555555556,-0.15179491924310226
4.708333333333334,-0.3299999999999869
4.711111111111111,-0.5082050807568619
4.7138888888888895,-0.5032050807568875
4.716666666666667,-0.32500000000003804
4.719444444444445,-0.15179491924310512
4.722222222222222,-0.14679491924310012
4.7250000000000005,-0.3249999999999826
4.727777777777778,-0.5032050807568598
4.730555555555556,-0.49820508075688963
4.733333333333333,-0.31500000000004236
4.736111111111112,-0.13179491924310724
4.738888888888889,-0.15179491924309796
4.741666666666667,-0.31499999999997824
4.7444444444444445,-0.5082050807568576
4.747222222222223,-0.5032050807568917
4.75,-0.3100000000000466
4.752777777777778,-0.14679491924310942
4.7555555555555555,-0.1567949192430958
4.758333333333334,-0.3299999999999739
4.761111111111111,-0.5082050807568554
4.763888888888889,-0.503205080756894
4.766666666666667,-0.330000000000051
4.769444444444445,-0.14679491924311158
4.772222222222222,-0.14679491924309365
4.775,-0.32999999999996965
4.777777777777778,-0.5032050807568533
4.780555555555556,-0.49820508075689607
4.783333333333333,-0.3150000000000553
4.786111111111111,-0.14179491924311374
4.788888888888889,-0.14179491924309148
4.791666666666667,-0.3299999999999653
4.794444444444444,-0.5032050807568511
4.7972222222222225,-0.49320508075689823
4.8,-0.31500000000005957
4.802777777777778,-0.13179491924311587
4.805555555555555,-0.13179491924308934
4.808333333333334,-0.29499999999996096
4.811111111111111,-0.48820508075684893
4.813888888888889,-0.4732050807569004
4.816666666666666,-0.2750000000000639
4.819444444444445,-0.08179491924311805
4.822222222222222,-0.08179491924308718
4.825,-0.2599999999999567
4.827777777777778,-0.43820508075689224
4.830555555555556,-0.42820508075690256
4.833333333333334,-0.23499999999997725
4.836111111111111,-0.05679491924312022
4.8388888888888895,-0.05179491924310778
4.841666666666667,-0.21999999999995237
4.844444444444445,-0.3932050807568901
4.847222222222222,-0.3882050807569047
4.8500000000000005,-0.19999999999998158
4.852777777777778,-0.03179491924312233
4.855555555555556,-0.031794919243105596
4.858333333333333,-0.22499999999994807
4.861111111111112,-0.4082050807568879
4.863888888888889,-0.4132050807569069
4.866666666666667,-0.22999999999998588
4.8694444444444445,-0.041794919243124506
4.872222222222223,-0.06679491924310343
4.875,-0.23999999999994373
4.877777777777778,-0.4232050807568858
4.8805555555555555,-0.408205080756909
4.883333333333334,-0.2099999999999902
4.886111111111111,-0.026794919243126658
4.888888888888889,-0.04679491924310128
4.891666666666667,-0.25499999999993944
4.894444444444445,-0.44820508075688364
4.897222222222222,-0.45820508075691113
4.9,-0.2999999999999945
4.902777777777778,-0.1317949192431288
4.905555555555556,-0.14679491924309912
4.908333333333333,-0.3299999999999351
4.911111111111111,-0.49820508075688147
4.913888888888889,-0.4932050807569133
4.916666666666667,-0.32999999999999885
4.919444444444444,-0.156794919243131
4.9222222222222225,-0.161794919243097
4.925,-0.33999999999993086
4.927777777777778,-0.5182050807568793
4.930555555555555,-0.5132050807569155
4.933333333333334,-0.33500000000000313
4.936111111111111,-0.14679491924313315
4.938888888888889,-0.15179491924309482
4.941666666666666,-0.3349999999999265
4.944444444444445,-0.5182050807568771
4.947222222222223,-0.5182050807568949
4.95,-0.3450000000000074
4.952777777777778,-0.16179491924311257
4.955555555555556,-0.1667949192430927
4.958333333333334,-0.34500000000001313
4.961111111111111,-0.528205080756875
4.9638888888888895,-0.5132050807568971
4.966666666666667,-0.3400000000000118
4.969444444444445,-0.16679491924311474
4.972222222222222,-0.16679491924309053
4.9750000000000005,-0.3450000000000088
4.977777777777778,-0.5282050807568728
4.980555555555556,-0.5382050807568992
4.983333333333333,-0.37000000000001604
4.986111111111112,-0.2317949192431169
4.988888888888889,-0.27179491924308835
4.991666666666667,-0.4800000000000045
4.9944444444444445,-0.6682050807568707
4.997222222222223,-0.6932050807569013
5.0,-0.5350000000000205
5.002777777777778,-0.331794919243119
5.0055555555555555,-0.2417949192430862
5.008333333333334,-0.28000000000000025
5.011111111111111,-0.30820508075686853
5.013888888888889,-0.10820508075690352
5.016666666666667,0.2999999999999298
5.019444444444445,0.7532050807568788
5.022222222222222,0.983205080756916
5.025,0.9450000000000041
5.027777777777778,0.7467949192431337
5.030555555555556,0.6017949192430944
5.033333333333333,0.4449999999999255
5.036111111111111,0.19320508075687667
5.038888888888889,-0.12179491924308186
5.041666666666667,-0.44499999999999157
5.044444444444444,-0.6432050807568642
5.0472222222222225,-0.5982050807569078
5.05,-0.3800000000000788
5.052777777777778,-0.18679491924312547
5.055555555555555,-0.1867949192430797
5.058333333333334,-0.3699999999999873
5.061111111111111,-0.553205080756862
5.063888888888889,-0.55320508075691
5.066666666666666,-0.3750000000000831
5.069444444444445,-0.19679491924312764
5.072222222222223,-0.19179491924312303
5.075,-0.36999999999998295
5.077777777777778,-0.5582050807568827
5.080555555555556,-0.5582050807569121
5.083333333333334,-0.37499999999999645
5.086111111111111,-0.19679491924312978
5.0888888888888895,-0.19679491924312087
5.091666666666667,-0.38499999999997864
5.094444444444445,-0.5682050807568805
5.097222222222222,-0.5582050807569143
5.1000000000000005,-0.3850000000000008
5.102777777777778,-0.216794919243132
5.105555555555556,-0.21179491924311875
5.108333333333333,-0.39499999999997437
5.111111111111112,-0.5832050807568783
5.113888888888889,-0.5732050807569165
5.116666666666667,-0.3950000000000051
5.1194444444444445,-0.20679491924313412
5.122222222222223,-0.2217949192431166
5.125,-0.39499999999997004
5.127777777777778,-0.5732050807568763
5.1305555555555555,-0.5732050807569187
5.133333333333334,-0.3950000000000094
5.136111111111111,-0.2167949192431363
5.138888888888889,-0.21679491924311445
5.141666666666667,-0.3949999999999657
5.144444444444445,-0.578205080756874
5.147222222222222,-0.5632050807569208
5.15,-0.3850000000000137
5.152777777777778,-0.20179491924313842
5.155555555555556,-0.20179491924311227
5.158333333333333,-0.37999999999996137
5.161111111111111,-0.5632050807568719
5.163888888888889,-0.558205080756923
5.166666666666667,-0.37000000000001804
5.169444444444444,-0.19679491924314058
5.1722222222222225,-0.1967949192431101
5.175,-0.3749999999999571
5.177777777777778,-0.5582050807568697
5.180555555555555,-0.5432050807569251
5.183333333333334,-0.39000000000002233
5.186111111111111,-0.20179491924314275
5.188888888888889,-0.19679491924310794
5.191666666666666,-0.37999999999995276
5.194444444444445,-0.5632050807568676
5.197222222222223,-0.5632050807568818
5.2,-0.38500000000002665
5.202777777777778,-0.20179491924312215
5.205555555555556,-0.20179491924310577
5.208333333333334,-0.38499999999999396
5.211111111111111,-0.5682050807568654
5.2138888888888895,-0.5632050807568839
5.216666666666667,-0.385000000000031
5.219444444444445,-0.20179491924312432
5.222222222222222,-0.20679491924310364
5.2250000000000005,-0.38499999999998963
5.227777777777778,-0.5632050807568633
5.230555555555556,-0.553205080756886
5.233333333333333,-0.38000000000003525
5.236111111111112,-0.19679491924312645
5.238888888888889,-0.19679491924310147
5.241666666666667,-0.3649999999999853
5.2444444444444445,-0.5632050807568612
5.247222222222223,-0.5382050807568882
5.25,-0.36500000000003957
5.252777777777778,-0.18679491924312863
5.2555555555555555,-0.20179491924309934
5.258333333333334,-0.379999999999981
5.261111111111111,-0.5732050807568589
5.263888888888889,-0.5632050807568905
5.266666666666667,-0.3750000000000439
5.269444444444445,-0.20179491924313078
5.272222222222222,-0.19679491924309717
5.275,-0.3849999999999767
5.277777777777778,-0.5632050807568568
5.280555555555556,-0.5632050807568926
5.283333333333333,-0.39000000000004825
5.286111111111111,-0.21679491924313296
5.288888888888889,-0.201794919243095
5.291666666666667,-0.38499999999997236
5.294444444444444,-0.5682050807568546
5.2972222222222225,-0.5532050807568947
5.3,-0.3700000000000525
5.302777777777778,-0.20179491924313508
5.305555555555555,-0.20179491924309287
5.308333333333334,-0.3899999999999681
5.311111111111111,-0.5782050807568525
5.313888888888889,-0.5482050807568969
5.316666666666666,-0.37000000000005684
5.319444444444445,-0.18679491924313724
5.322222222222223,-0.20179491924311344
5.325,-0.38499999999996376
5.327777777777778,-0.5532050807568958
5.330555555555556,-0.543205080756899
5.333333333333334,-0.36000000000001564
5.336111111111111,-0.1717949192431394
5.3388888888888895,-0.17179491924311127
5.341666666666667,-0.32999999999995944
5.344444444444445,-0.5032050807568936
5.347222222222222,-0.48820508075690117
5.3500000000000005,-0.31000000000002
5.352777777777778,-0.12179491924314154
5.355555555555556,-0.11179491924310908
5.358333333333333,-0.28499999999995507
5.361111111111112,-0.46820508075689143
5.363888888888889,-0.45320508075690336
5.366666666666667,-0.27000000000002433
5.3694444444444445,-0.10679491924314374
5.372222222222223,-0.106794919243107
5.375,-0.27999999999995084
5.377777777777778,-0.46320508075688926
5.3805555555555555,-0.4632050807569055
5.383333333333334,-0.2800000000000286
5.386111111111111,-0.10179491924314588
5.388888888888889,-0.10679491924310483
5.391666666666667,-0.28499999999994646
5.394444444444445,-0.46320508075688716
5.397222222222222,-0.4632050807569076
5.4,-0.28000000000003294
5.402777777777778,-0.10679491924314805
5.405555555555556,-0.11179491924310264
5.408333333333333,-0.28999999999994214
5.411111111111111,-0.473205080756885
5.413888888888889,-0.46820508075690975
5.416666666666667,-0.2850000000000372
5.419444444444444,-0.10679491924315021
5.4222222222222225,-0.11179491924310048
5.425,-0.28499999999993786
5.427777777777778,-0.46820508075688283
5.430555555555555,-0.4582050807569119
5.433333333333334,-0.28000000000004155
5.436111111111111,-0.10179491924315237
5.438888888888889,-0.10679491924309836
5.441666666666667,-0.29000000000002446
5.444444444444445,-0.4832050807568807
5.447222222222223,-0.47820508075686863
5.45,-0.28500000000000036
5.452777777777778,-0.09679491924313177
5.455555555555556,-0.09679491924307349
5.458333333333334,-0.27499999999997476
5.461111111111111,-0.4582050807568558
5.4638888888888895,-0.4582050807568935
5.466666666666667,-0.2700000000000502
5.469444444444445,-0.0917949192431112
5.472222222222222,-0.09179491924309405
5.4750000000000005,-0.2650000000000159
5.477777777777778,-0.4532050807568764
5.480555555555556,-0.4382050807568729
5.483333333333333,-0.24500000000000902
5.486111111111112,-0.06179491924313607
5.488888888888889,-0.061794919243069124
5.491666666666667,-0.24999999999996608
5.4944444444444445,-0.4232050807568515
5.497222222222223,-0.41820508075689783
5.5,-0.21500000000005878
5.502777777777778,-0.04679491924311549
5.5055555555555555,-0.07179491924308973
5.508333333333334,-0.2550000000000073
5.511111111111111,-0.40320508075687206
5.513888888888889,-0.3782050807568772
5.516666666666667,-0.21000000000001762
5.519444444444445,-0.04679491924314039
5.522222222222222,-0.05679491924306482
5.525,-0.23999999999995747
5.527777777777778,-0.41320508075684714
5.530555555555556,-0.4182050807569021
5.533333333333333,-0.25000000000006745
5.536111111111111,-0.09679491924311981
5.538888888888889,-0.11179491924308538
5.541666666666667,-0.3149999999999986
5.544444444444444,-0.49320508075686775
5.5472222222222225,-0.4932050807568816
5.55,-0.31000000000002625
5.552777777777778,-0.1567949192431447
5.555555555555555,-0.16679491924306053
5.558333333333334,-0.34499999999994885
5.561111111111111,-0.5332050807568428
5.563888888888889,-0.5382050807569064
5.566666666666667,-0.3599999999999851
5.569444444444445,-0.17679491924312407
5.572222222222223,-0.18179491924312655
5.575,-0.37499999999999
5.577777777777778,-0.5582050807569089
5.580555555555556,-0.5482050807568859
5.583333333333334,-0.37000000000003486
5.586111111111111,-0.191794919243149
5.5888888888888895,-0.19179491924310166
5.591666666666667,-0.3699999999999402
5.594444444444445,-0.553205080756884
5.597222222222222,-0.5332050807569108
5.6000000000000005,-0.3499999999999937
5.602777777777778,-0.1817949192431284
5.605555555555556,-0.18179491924312224
5.608333333333333,-0.3499999999999814
5.611111111111112,-0.5382050807569045
5.613888888888889,-0.5232050807568902
5.616666666666667,-0.3500000000000435
5.6194444444444445,-0.16679491924315334
5.622222222222223,-0.18179491924309735
5.625,-0.3499999999999316
5.627777777777778,-0.5482050807568797
5.6305555555555555,-0.5382050807569151
5.633333333333334,-0.37500000000000233
5.636111111111111,-0.22679491924313278
5.638888888888889,-0.2567949192431179
5.641666666666667,-0.4749999999999727
5.644444444444445,-0.6932050807568548
5.647222222222222,-0.6932050807568946
5.65,-0.5500000000000522
5.652777777777778,-0.3967949192431576
5.655555555555556,-0.3667949192430931
5.658333333333333,-0.44499999999992296
5.661111111111111,-0.4782050807568754
5.663888888888889,-0.31320508075691944
5.666666666666667,0.02499999999998903
5.669444444444444,0.4332050807568629
5.6722222222222225,0.6832050807568864
5.675,0.7350000000000358
5.677777777777778,0.6717949192431495
5.680555555555555,0.7017949192431012
5.683333333333334,0.7349999999999393
5.686111111111111,0.5732050807568381
5.688888888888889,0.14820508075691127
5.691666666666667,-0.3350000000000053
5.694444444444445,-0.653205080756871
5.697222222222223,-0.6432050807568782
5.7,-0.4150000000000196
5.702777777777778,-0.2017949192430959
5.705555555555556,-0.19179491924310932
5.708333333333334,-0.38499999999995554
5.711111111111111,-0.5732050807568462
5.7138888888888895,-0.5532050807569031
5.716666666666667,-0.3900000000000694
5.719444444444445,-0.20179491924312076
5.722222222222222,-0.21179491924308444
5.7250000000000005,-0.3949999999999967
5.727777777777778,-0.5782050807568668
5.730555555555556,-0.5632050807568826
5.733333333333333,-0.3800000000000282
5.736111111111112,-0.21179491924310023
5.738888888888889,-0.211794919243105
5.741666666666667,-0.3949999999999469
5.7444444444444445,-0.5732050807568418
5.747222222222223,-0.5782050807569075
5.75,-0.400000000000078
5.752777777777778,-0.2167949192431251
5.7555555555555555,-0.21679491924308014
5.758333333333334,-0.3949999999999881
5.761111111111111,-0.5732050807568625
5.763888888888889,-0.5632050807568869
5.766666666666667,-0.38500000000003687
5.769444444444445,-0.21679491924310454
5.772222222222222,-0.2117949192431007
5.775,-0.40999999999993825
5.777777777777778,-0.5932050807568375
5.780555555555556,-0.5782050807569118
5.783333333333333,-0.41000000000008663
5.786111111111111,-0.21679491924312944
5.788888888888889,-0.2167949192430758
5.791666666666667,-0.3899999999999794
5.794444444444444,-0.5732050807568582
5.7972222222222225,-0.5732050807568911
5.8,-0.3900000000000455
5.802777777777778,-0.20179491924310883
5.805555555555555,-0.2067949192430964
5.808333333333334,-0.39499999999992963
5.811111111111111,-0.5732050807568333
5.813888888888889,-0.5632050807569161
5.816666666666667,-0.40000000000000435
5.819444444444445,-0.21679491924313374
5.822222222222223,-0.221794919243117
5.825,-0.4099999999999708
5.827777777777778,-0.5882050807568993
5.830555555555556,-0.5782050807568955
5.833333333333334,-0.38499999999996315
5.836111111111111,-0.21179491924311314
5.8388888888888895,-0.20679491924309207
5.841666666666667,-0.39999999999992103
5.844444444444445,-0.5732050807568745
5.847222222222222,-0.5682050807569203
5.8500000000000005,-0.39000000000001295
5.852777777777778,-0.20679491924313803
5.855555555555556,-0.20179491924311266
5.858333333333333,-0.3949999999999622
5.861111111111112,-0.568205080756895
5.863888888888889,-0.5582050807568998
5.866666666666667,-0.37999999999997175
5.8694444444444445,-0.20179491924311743
5.872222222222223,-0.21179491924308777
5.875,-0.3899999999999124
5.877777777777778,-0.5732050807568702
5.8805555555555555,-0.5732050807569247
5.883333333333334,-0.38500000000002155
5.886111111111111,-0.20679491924314233
5.888888888888889,-0.22179491924310835
5.891666666666667,-0.38999999999995355
5.894444444444445,-0.5732050807568907
5.897222222222222,-0.5682050807569041
5.9,-0.3849999999999804
5.902777777777778,-0.20679491924312177
5.905555555555556,-0.21179491924308347
5.908333333333333,-0.39499999999990376
5.911111111111111,-0.5782050807568658
5.913888888888889,-0.573205080756929
5.916666666666667,-0.3900000000000302
5.919444444444444,-0.20679491924314666
5.9222222222222225,-0.20679491924310403
5.925,-0.38499999999994494
5.927777777777778,-0.5782050807568864
5.930555555555555,-0.5682050807569085
5.933333333333334,-0.39999999999998903
5.936111111111111,-0.2167949192431261
5.938888888888889,-0.22679491924307915
5.941666666666667,-0.4049999999999861
5.944444444444445,-0.5982050807568615
5.947222222222223,-0.5932050807568878
5.95,-0.40500000000003883
5.952777777777778,-0.22679491924310552
5.955555555555556,-0.23179491924309975
5.958333333333334,-0.4050000000000273
5.961111111111111,-0.588205080756882
5.9638888888888895,-0.5732050807569128
5.966666666666667,-0.3899999999999977
5.969444444444445,-0.2067949192431304
5.972222222222222,-0.21179491924307484
5.9750000000000005,-0.3949999999999775
5.977777777777778,-0.5782050807568572
5.980555555555556,-0.5632050807568921
5.983333333333333,-0.3700000000000474
5.986111111111112,-0.1967949192431098
5.988888888888889,-0.19679491924309542
5.991666666666667,-0.38500000000001866
5.9944444444444445,-0.5432050807568778
5.997222222222223,-0.528205080756917
6.0,-0.3450000000000972
6.002777777777778,-0.16679491924313472
6.0055555555555555,-0.16179491924307052
6.008333333333334,-0.3399999999999689
6.011111111111111,-0.5282050807568528
6.013888888888889,-0.5082050807568965
6.016666666666667,-0.3250000000000561
6.019444444444445,-0.1367949192431141
6.022222222222222,-0.13179491924309109
6.025,-0.30500000000001
6.027777777777778,-0.4932050807568734
6.030555555555556,-0.4882050807569214
6.033333333333333,-0.31000000000010586
6.036111111111111,-0.131794919243139
6.038888888888889,-0.1317949192430662
6.041666666666667,-0.3299999999999602
6.044444444444444,-0.49820508075684855
6.0472222222222225,-0.5182050807569007
6.05,-0.3250000000000647
6.052777777777778,-0.14179491924311843
6.055555555555555,-0.1417949192430868
6.058333333333334,-0.3050000000000014
6.061111111111112,-0.48320508075686913
6.063888888888889,-0.48320508075692564
6.066666666666667,-0.3000000000000235
6.069444444444445,-0.13179491924314332
6.072222222222223,-0.13179491924310735
6.075,-0.3149999999999516
6.077777777777778,-0.49320508075688974
6.080555555555556,-0.4982050807569051
6.083333333333334,-0.31499999999998235
6.086111111111111,-0.13179491924312275
6.0888888888888895,-0.14179491924312795
6.091666666666667,-0.32499999999999274
6.094444444444445,-0.4982050807568648
6.097222222222222,-0.5032050807569299
6.1000000000000005,-0.31500000000003214
6.102777777777778,-0.14179491924314763
6.105555555555556,-0.13679491924310305
6.108333333333333,-0.329999999999943
6.111111111111112,-0.5132050807568854
6.113888888888889,-0.5082050807569094
6.116666666666667,-0.32999999999999097
6.1194444444444445,-0.17179491924312704
6.122222222222223,-0.18179491924312363
6.125,-0.3649999999999841
6.127777777777778,-0.5432050807568605
6.1305555555555555,-0.5182050807569343
6.133333333333334,-0.34000000000004077
6.136111111111111,-0.16679491924315198
6.138888888888889,-0.17179491924309873
6.141666666666667,-0.3599999999999343
6.144444444444445,-0.538205080756881
6.147222222222222,-0.5332050807569138
6.15,-0.3599999999999996
6.152777777777778,-0.17179491924313134
6.155555555555556,-0.1817949192431193
6.158333333333333,-0.3649999999999755
6.161111111111111,-0.5232050807568561
6.163888888888889,-0.5332050807569386
6.166666666666667,-0.3500000000000494
6.169444444444444,-0.1667949192431563
6.1722222222222225,-0.1717949192430944
6.175,-0.3549999999999257
6.177777777777778,-0.5432050807568768
6.180555555555555,-0.523205080756918
6.183333333333334,-0.3500000000000082
6.186111111111112,-0.17679491924313565
6.188888888888889,-0.17179491924311496
6.191666666666667,-0.34999999999996684
6.194444444444445,-0.5282050807568519
6.197222222222223,-0.5332050807568974
6.2,-0.345000000000058
6.202777777777778,-0.18179491924311508
6.205555555555556,-0.1767949192430901
6.208333333333334,-0.36000000000000804
6.211111111111111,-0.5432050807568725
6.2138888888888895,-0.5282050807568768
6.216666666666667,-0.35500000000001686
6.219444444444445,-0.17679491924313998
6.222222222222222,-0.18179491924311067
6.2250000000000005,-0.35999999999995824
6.227777777777778,-0.5632050807568476
6.230555555555556,-0.5582050807569018
6.233333333333333,-0.3600000000000666
6.236111111111112,-0.18679491924311942
6.238888888888889,-0.1967949192430858
6.241666666666667,-0.36999999999999944
6.2444444444444445,-0.5632050807568681
6.247222222222223,-0.5482050807568812
6.25,-0.3700000000000255
6.252777777777778,-0.17679491924314428
6.2555555555555555,-0.1667949192431064
6.258333333333334,-0.3449999999999496
6.261111111111111,-0.5332050807568433
6.263888888888889,-0.5332050807569061
6.266666666666667,-0.35000000000007525
6.269444444444445,-0.1767949192431237
6.272222222222222,-0.1617949192430815
6.275,-0.35999999999999077
6.277777777777778,-0.5382050807568638
6.280555555555556,-0.5382050807568854
6.283333333333333,-0.36000000000003407
6.286111111111111,-0.18679491924314862
6.288888888888889,-0.19179491924310207
6.291666666666667,-0.374999999999941
6.294444444444444,-0.558205080756839
6.2972222222222225,-0.5582050807569103
6.3,-0.36500000000008387
6.302777777777778,-0.19679491924312803
6.305555555555555,-0.2017949192430772
6.308333333333334,-0.3699999999999822
6.311111111111112,-0.548205080756905
6.313888888888889,-0.5382050807568898
6.316666666666667,-0.3550000000000427
6.319444444444445,-0.1817949192431529
6.322222222222223,-0.18679491924309774
6.325,-0.3649999999999324
6.327777777777778,-0.5432050807568801
6.330555555555556,-0.5332050807569146
6.333333333333334,-0.35000000000000153
6.336111111111111,-0.16679491924313236
6.3388888888888895,-0.1717949192431183
6.341666666666667,-0.33999999999997355
6.344444444444445,-0.5232050807569006
6.347222222222222,-0.5182050807568941
6.3500000000000005,-0.3500000000000513
6.352777777777778,-0.18679491924315722
6.355555555555556,-0.17679491924309343
6.358333333333333,-0.35999999999992377
6.361111111111112,-0.5432050807568758
6.363888888888889,-0.533205080756919
6.366666666666667,-0.36000000000001015
6.3694444444444445,-0.18179491924313662
6.372222222222223,-0.186794919243114
6.375,-0.3749999999999649
6.377777777777778,-0.5482050807568963
6.3805555555555555,-0.5432050807568984
6.383333333333334,-0.35000000000005993
6.386111111111111,-0.18179491924316155
6.388888888888889,-0.1867949192430891
6.391666666666667,-0.3649999999999151
6.394444444444445,-0.5482050807568715
6.397222222222222,-0.5432050807569233
6.4,-0.3650000000000188
6.402777777777778,-0.18679491924314096
6.405555555555556,-0.1817949192431097
6.408333333333333,-0.3599999999999563
6.411111111111111,-0.533205080756892
6.413888888888889,-0.5232050807569028
6.416666666666667,-0.34000000000006864
6.419444444444444,-0.17179491924316584
6.4222222222222225,-0.1717949192430848
6.425,-0.3549999999999065
6.427777777777778,-0.5332050807568671
6.430555555555555,-0.5332050807569276
6.433333333333334,-0.3650000000000274
6.436111111111112,-0.17179491924309978
6.438888888888889,-0.1817949192431054
6.441666666666667,-0.3500000000000386
6.444444444444445,-0.5332050807568878
6.447222222222223,-0.528205080756907
6.45,-0.3600000000000772
6.452777777777778,-0.17179491924312468
6.455555555555556,-0.16179491924308054
6.458333333333334,-0.32999999999998886
6.461111111111111,-0.5032050807568629
6.4638888888888895,-0.48320508075688645
6.466666666666667,-0.3050000000000361
6.469444444444445,-0.1267949192431041
6.472222222222222,-0.1317949192431011
6.4750000000000005,-0.29499999999993903
6.477777777777778,-0.4782050807568834
6.480555555555556,-0.45820508075691135
6.483333333333333,-0.27500000000008584
6.486111111111112,-0.09179491924312902
6.488888888888889,-0.08179491924307619
6.491666666666667,-0.2549999999999802
6.4944444444444445,-0.43320508075685854
6.497222222222223,-0.4382050807568908
6.5,-0.2550000000000447
6.502777777777778,-0.08179491924310844
6.5055555555555555,-0.08679491924309679
6.508333333333334,-0.27999999999993047
6.511111111111111,-0.4632050807568791
6.513888888888889,-0.4532050807569157
6.516666666666667,-0.2700000000000945
6.519444444444445,-0.08179491924313331
6.522222222222222,-0.10179491924307191
6.525,-0.28999999999997156
6.527777777777778,-0.4932050807568542
6.530555555555556,-0.47320508075689505
6.533333333333333,-0.2950000000000533
6.536111111111111,-0.09679491924311276
6.538888888888889,-0.09179491924309247
6.541666666666667,-0.2699999999999218
6.544444444444444,-0.45820508075687477
6.5472222222222225,-0.47320508075691997
6.55,-0.3100000000001031
6.552777777777778,-0.14179491924313764
6.555555555555556,-0.14679491924311305
6.558333333333334,-0.34999999999996295
6.561111111111112,-0.5432050807568953
6.563888888888889,-0.5382050807568994
6.566666666666667,-0.36499999999997096
6.569444444444445,-0.19179491924311706
6.572222222222223,-0.19679491924308815
6.575,-0.3699999999999132
6.577777777777778,-0.5432050807568705
6.580555555555556,-0.5532050807569243
6.583333333333334,-0.36000000000002075
6.586111111111111,-0.20179491924314197
6.5888888888888895,-0.20179491924310874
6.591666666666667,-0.39999999999995434
6.594444444444445,-0.593205080756891
6.597222222222222,-0.5782050807569037
6.6000000000000005,-0.39999999999997965
6.602777777777778,-0.21179491924312138
6.605555555555556,-0.20679491924308385
6.608333333333333,-0.3999999999999046
6.611111111111112,-0.5882050807568662
6.613888888888889,-0.5782050807569287
6.616666666666667,-0.39500000000002944
6.6194444444444445,-0.2217949192431463
6.622222222222223,-0.22179491924310446
6.625,-0.4099999999999457
6.627777777777778,-0.6032050807568867
6.6305555555555555,-0.613205080756908
6.633333333333334,-0.45499999999998825
6.636111111111111,-0.31679491924312564
6.638888888888889,-0.3117949192430795
6.641666666666667,-0.519999999999896
6.644444444444445,-0.7432050807568618
6.647222222222222,-0.7482050807569329
6.65,-0.525000000000038
6.652777777777778,-0.24679491924315056
6.655555555555556,-0.1317949192431001
6.658333333333333,-0.18999999999993708
6.661111111111111,-0.19320508075688245
6.663888888888889,0.04679491924308768
6.666666666666667,0.48500000000000315
6.669444444444444,0.88820508075687
6.6722222222222225,1.0182050807569247
6.675,0.8850000000001127
6.677777777777778,0.6167949192431424
6.680555555555556,0.38679491924310827
6.683333333333334,0.22499999999995335
6.686111111111112,0.10320508075689058
6.688888888888889,-0.11179491924309576
6.691666666666667,-0.4250000000000194
6.694444444444445,-0.6732050807568781
6.697222222222223,-0.7232050807568712
6.7,-0.5350000000000055
6.702777777777778,-0.3267949192431343
6.705555555555556,-0.29179491924307094
6.708333333333334,-0.44999999999996965
6.711111111111111,-0.6232050807568532
6.7138888888888895,-0.608205080756896
6.716666666666667,-0.4200000000000553
6.719444444444445,-0.23679491924311372
6.722222222222222,-0.23679491924309146
6.7250000000000005,-0.41500000000001075
6.727777777777778,-0.5932050807568738
6.730555555555556,-0.5982050807568755
6.733333333333333,-0.4200000000000141
6.736111111111112,-0.25679491924313863
6.738888888888889,-0.2567949192430666
6.741666666666667,-0.439999999999961
6.7444444444444445,-0.623205080756849
6.747222222222223,-0.6232050807569004
6.75,-0.4300000000000639
6.752777777777778,-0.25679491924311804
6.7555555555555555,-0.25679491924308717
6.758333333333334,-0.44500000000000217
6.761111111111111,-0.6182050807568695
6.763888888888889,-0.6132050807568799
6.766666666666667,-0.4250000000000227
6.769444444444445,-0.2567949192431429
6.772222222222222,-0.2567949192430623
6.775,-0.42499999999995236
6.777777777777778,-0.6182050807568447
6.780555555555556,-0.6182050807569047
6.783333333333333,-0.4300000000000725
6.786111111111111,-0.26179491924312237
6.788888888888889,-0.26179491924308285
6.791666666666667,-0.44499999999999357
6.794444444444444,-0.6182050807568652
6.7972222222222225,-0.6082050807568842
6.8,-0.43000000000003136
6.802777777777778,-0.25179491924314723
6.805555555555556,-0.25679491924310344
6.808333333333334,-0.42999999999994376
6.811111111111112,-0.6132050807568858
6.813888888888889,-0.5932050807569089
6.816666666666667,-0.42999999999999017
6.819444444444445,-0.25179491924312664
6.822222222222223,-0.25679491924312403
6.825,-0.4399999999999849
6.827777777777778,-0.6132050807568609
6.830555555555556,-0.6032050807569339
6.833333333333334,-0.43000000000003996
6.836111111111111,-0.24179491924315152
6.8388888888888895,-0.2517949192430991
6.841666666666667,-0.4299999999999351
6.844444444444445,-0.6282050807568815
6.847222222222222,-0.6182050807569133
6.8500000000000005,-0.44499999999999884
6.852777777777778,-0.25679491924313097
6.855555555555556,-0.2567949192431197
6.858333333333333,-0.4399999999999763
6.861111111111112,-0.6132050807568565
6.863888888888889,-0.6082050807569381
6.866666666666667,-0.4300000000000486
6.8694444444444445,-0.24179491924315585
6.872222222222223,-0.2417949192430948
6.875,-0.4249999999999265
6.877777777777778,-0.5982050807568772
6.8805555555555555,-0.5932050807569176
6.883333333333334,-0.40500000000000747
6.886111111111111,-0.23179491924313533
6.888888888888889,-0.24179491924311539
6.891666666666667,-0.4149999999999677
6.894444444444445,-0.5982050807568522
6.897222222222222,-0.6032050807569425
6.9,-0.40500000000005726
6.902777777777778,-0.2317949192431602
6.905555555555556,-0.23179491924309054
6.908333333333333,-0.4049999999999179
6.911111111111111,-0.6032050807568728
6.913888888888889,-0.5882050807569219
6.916666666666667,-0.410000000000016
6.919444444444444,-0.2417949192431396
6.9222222222222225,-0.2567949192431111
6.925,-0.44499999999995904
6.927777777777778,-0.638205080756848
6.930555555555556,-0.6332050807569014
6.933333333333334,-0.45000000000006585
6.936111111111112,-0.28179491924311906
6.938888888888889,-0.2867949192430862
6.941666666666667,-0.46500000000000025
6.944444444444445,-0.6582050807568686
6.947222222222223,-0.6682050807568808
6.95,-0.4750000000000247
6.952777777777778,-0.31679491924309844
6.955555555555556,-0.3267949192431068
6.958333333333334,-0.4949999999999504
6.961111111111111,-0.6882050807568436
6.9638888888888895,-0.6732050807569057
6.966666666666667,-0.4850000000000745
6.969444444444445,-0.3167949192431233
6.972222222222222,-0.3117949192430819
6.9750000000000005,-0.49999999999999156
6.977777777777778,-0.6732050807568642
6.980555555555556,-0.6632050807568851
6.983333333333333,-0.4800000000000333
6.986111111111112,-0.28679491924310274
6.988888888888889,-0.28679491924310246
6.991666666666667,-0.46999999999994174
6.9944444444444445,-0.6382050807568393
6.997222222222223,-0.61320508075691
7.0,-0.4300000000000831
7.002777777777778,-0.25179491924312764
7.0055555555555555,-0.23679491924307755
7.008333333333334,-0.40999999999998293
7.011111111111111,-0.5732050807568599
7.013888888888889,-0.5632050807568894
7.016666666666667,-0.38000000000004197
7.019444444444445,-0.18179491924310703
7.022222222222222,-0.17679491924309812
7.025,-0.35499999999993315
7.027777777777778,-0.523205080756835
7.030555555555556,-0.5132050807569143
7.033333333333333,-0.3300000000000917
7.036111111111111,-0.151794919243132
7.038888888888889,-0.13179491924307324
7.041666666666667,-0.31999999999997436
7.044444444444444,-0.4882050807568556
7.0472222222222225,-0.4782050807568937
7.050000000000001,-0.30000000000005056
7.052777777777778,-0.13179491924311137
7.055555555555556,-0.13179491924309383
7.058333333333334,-0.30999999999992456
7.061111111111112,-0.5032050807568762
7.063888888888889,-0.4832050807569186
7.066666666666667,-0.3150000000000094
7.069444444444445,-0.14179491924313628
7.072222222222223,-0.14679491924311444
7.075,-0.3249999999999657
7.077777777777778,-0.4982050807568968
7.080555555555556,-0.49820508075689807
7.083333333333334,-0.3100000000000592
7.086111111111111,-0.13679491924311568
7.0888888888888895,-0.14179491924308954
7.091666666666667,-0.3249999999999159
7.094444444444445,-0.5032050807568719
7.097222222222222,-0.49820508075692294
7.1000000000000005,-0.32500000000001805
7.102777777777778,-0.14179491924314058
7.105555555555556,-0.1467949192431101
7.108333333333333,-0.3299999999999571
7.111111111111112,-0.5082050807568925
7.113888888888889,-0.5032050807569024
7.116666666666667,-0.31500000000006784
7.1194444444444445,-0.14679491924312
7.122222222222223,-0.14679491924308524
7.125,-0.3349999999999073
7.127777777777778,-0.5082050807568675
7.1305555555555555,-0.49820508075692727
7.133333333333334,-0.32500000000002666
7.136111111111111,-0.1467949192431449
7.138888888888889,-0.14679491924310578
7.141666666666667,-0.32499999999994844
7.144444444444445,-0.5232050807568881
7.147222222222222,-0.5182050807569066
7.15,-0.3450000000000764
7.152777777777778,-0.16179491924312434
7.155555555555556,-0.17179491924308088
7.158333333333333,-0.3549999999998987
7.161111111111111,-0.5282050807568632
7.163888888888889,-0.5282050807569315
7.166666666666667,-0.3450000000000352
7.169444444444444,-0.1617949192431492
7.1722222222222225,-0.1617949192431015
7.175000000000001,-0.3450000000000308
7.177777777777778,-0.5282050807568838
7.180555555555556,-0.513205080756911
7.183333333333334,-0.33500000000008506
7.186111111111112,-0.15679491924312863
7.188888888888889,-0.1617949192430766
7.191666666666667,-0.344999999999981
7.194444444444445,-0.5232050807568589
7.197222222222223,-0.5232050807568903
7.2,-0.34000000000004393
7.202777777777778,-0.16179491924310807
7.205555555555556,-0.15679491924309719
7.208333333333334,-0.36000000000002214
7.211111111111111,-0.5282050807568794
7.2138888888888895,-0.5182050807569153
7.216666666666667,-0.3350000000000937
7.219444444444445,-0.17179491924313292
7.222222222222222,-0.17679491924307225
7.2250000000000005,-0.35999999999997234
7.227777777777778,-0.5532050807568546
7.230555555555556,-0.5432050807568947
7.233333333333333,-0.3450000000000525
7.236111111111112,-0.17179491924311233
7.238888888888889,-0.17679491924309285
7.241666666666667,-0.3550000000000135
7.2444444444444445,-0.5382050807568752
7.247222222222223,-0.5332050807569195
7.25,-0.3450000000001023
7.252777777777778,-0.17179491924313722
7.2555555555555555,-0.17679491924306795
7.258333333333334,-0.35999999999996374
7.261111111111111,-0.5332050807568502
7.263888888888889,-0.523205080756899
7.266666666666667,-0.35500000000006116
7.269444444444445,-0.16679491924311668
7.272222222222222,-0.17179491924308854
7.275,-0.35500000000000487
7.277777777777778,-0.5282050807568709
7.280555555555556,-0.5282050807569239
7.283333333333333,-0.34000000000011094
7.286111111111111,-0.16679491924314158
7.288888888888889,-0.17179491924306362
7.291666666666667,-0.36499999999995514
7.294444444444444,-0.543205080756846
7.2972222222222225,-0.5232050807569033
7.300000000000001,-0.32999999999997887
7.302777777777778,-0.146794919243121
7.305555555555556,-0.14179491924308424
7.308333333333334,-0.29499999999999627
7.311111111111112,-0.4782050807568666
7.313888888888889,-0.4682050807569282
7.316666666666667,-0.3000000000000286
7.319444444444445,-0.11179491924314583
7.322222222222223,-0.10179491924310483
7.325,-0.2599999999999465
7.327777777777778,-0.44820508075688714
7.330555555555556,-0.4382050807569077
7.333333333333334,-0.25999999999998746
7.336111111111111,-0.07679491924312529
7.3388888888888895,-0.0717949192430799
7.341666666666667,-0.2549999999999877
7.344444444444445,-0.43820508075686226
7.347222222222222,-0.43320508075693254
7.3500000000000005,-0.26000000000003726
7.352777777777778,-0.07679491924315018
7.355555555555556,-0.08679491924310051
7.358333333333333,-0.2799999999999379
7.361111111111112,-0.45320508075688287
7.363888888888889,-0.44820508075691196
7.366666666666667,-0.28499999999999603
7.3694444444444445,-0.10679491924312964
7.372222222222223,-0.08179491924307561
7.375,-0.24499999999997904
7.377777777777778,-0.4182050807568579
7.3805555555555555,-0.43320508075693687
7.383333333333334,-0.28500000000004583
7.386111111111111,-0.1167949192431545
7.388888888888889,-0.1267949192430962
7.391666666666667,-0.31999999999992923
7.394444444444445,-0.5082050807568785
7.397222222222222,-0.5282050807569163
7.4,-0.3500000000000047
7.402777777777778,-0.1817949192431339
7.405555555555556,-0.18179491924307128
7.408333333333333,-0.3749999999999704
7.411111111111111,-0.5582050807568537
7.413888888888889,-0.5532050807569412
7.416666666666667,-0.36000000000005444
7.419444444444444,-0.1767949192431588
7.4222222222222225,-0.18679491924309188
7.425000000000001,-0.36500000000001154
7.427777777777778,-0.5432050807568742
7.430555555555556,-0.5432050807568751
7.433333333333334,-0.3650000000000133
7.436111111111112,-0.1867949192431382
7.438888888888889,-0.191794919243067
7.441666666666667,-0.3699999999999618
7.444444444444445,-0.5582050807568493
7.447222222222223,-0.5582050807569
7.45,-0.3650000000000631
7.452777777777778,-0.18679491924311764
7.455555555555556,-0.20679491924308757
7.458333333333334,-0.38500000000000295
7.461111111111111,-0.5682050807568699
7.4638888888888895,-0.5682050807568795
7.466666666666667,-0.38500000000002194
7.469444444444445,-0.20679491924314253
7.472222222222222,-0.2217949192430627
7.4750000000000005,-0.42499999999995314
7.477777777777778,-0.638205080756845
7.480555555555556,-0.6732050807569043
7.483333333333333,-0.5150000000000717
7.486111111111112,-0.356794919243122
7.488888888888889,-0.3867949192430833
7.491666666666667,-0.5849999999999943
7.4944444444444445,-0.7032050807568656
7.497222222222223,-0.5832050807568837
7.5,-0.2550000000000306
7.502777777777778,0.06820508075685315
7.5055555555555555,0.2782050807569416
7.508333333333334,0.35500000000005544
7.511111111111111,0.42679491924315927
7.513888888888889,0.6367949192430915
7.516666666666667,0.8899999999999196
7.519444444444445,1.0032050807568738
7.522222222222222,0.753205080756921
7.525,0.1850000000000143
7.527777777777778,-0.37820508075686127
7.530555555555556,-0.6232050807568881
7.533333333333333,-0.5250000000000392
7.536111111111111,-0.3217949192431512
7.538888888888889,-0.29179491924305406
7.541666666666667,-0.4349999999999359
7.544444444444445,-0.5882050807568818
7.5472222222222225,-0.5882050807569129
7.550000000000001,-0.41499999999999804
7.552777777777778,-0.2267949192431306
7.555555555555556,-0.22179491924312011
7.558333333333334,-0.4049999999999771
7.561111111111112,-0.5982050807569024
7.563888888888889,-0.6082050807568924
7.566666666666667,-0.4150000000000478
7.569444444444445,-0.24179491924315547
7.572222222222223,-0.2417949192430952
7.575,-0.41499999999992726
7.577777777777778,-0.6032050807568776
7.580555555555556,-0.5932050807569172
7.583333333333334,-0.41000000000000664
7.586111111111111,-0.23179491924313492
7.5888888888888895,-0.24679491924311578
7.591666666666667,-0.40999999999996845
7.594444444444445,-0.593205080756898
7.597222222222222,-0.5732050807568967
7.6000000000000005,-0.3950000000000565
7.602777777777778,-0.2117949192431598
7.605555555555556,-0.22679491924309092
7.608333333333333,-0.3999999999999187
7.611111111111112,-0.5732050807568733
7.613888888888889,-0.5732050807569216
7.616666666666667,-0.3950000000000153
7.6194444444444445,-0.22679491924313921
7.622222222222223,-0.2267949192431115
7.625,-0.39999999999995983
7.627777777777778,-0.5832050807568938
7.6305555555555555,-0.568205080756901
7.633333333333334,-0.41000000000006503
7.636111111111111,-0.2267949192431641
7.638888888888889,-0.22179491924308659
7.641666666666667,-0.40499999999991004
7.644444444444445,-0.5832050807568689
7.647222222222222,-0.5882050807569259
7.65,-0.40500000000002395
7.652777777777778,-0.22679491924314354
7.655555555555556,-0.22179491924310718
7.658333333333333,-0.40499999999995123
7.661111111111111,-0.588205080756844
7.663888888888889,-0.5782050807569052
7.666666666666667,-0.4150000000000737
7.669444444444445,-0.2367949192431229
7.6722222222222225,-0.2317949192430823
7.675000000000001,-0.40499999999999237
7.677777777777778,-0.5832050807568646
7.680555555555556,-0.5782050807568847
7.683333333333334,-0.40000000000003255
7.686111111111112,-0.22179491924310238
7.688888888888889,-0.2317949192431029
7.691666666666667,-0.40499999999994263
7.694444444444445,-0.5732050807568397
7.697222222222223,-0.5682050807569097
7.7,-0.39000000000008234
7.702777777777778,-0.22179491924312728
7.705555555555556,-0.21679491924307798
7.708333333333334,-0.39499999999998375
7.711111111111111,-0.5932050807568603
7.7138888888888895,-0.588205080756889
7.716666666666667,-0.40500000000004116
7.719444444444445,-0.22679491924310669
7.722222222222222,-0.22679491924309858
7.7250000000000005,-0.4149999999999339
7.727777777777778,-0.5932050807568354
7.730555555555556,-0.5832050807569139
7.733333333333333,-0.39500000000009095
7.736111111111112,-0.22679491924313158
7.738888888888889,-0.2317949192430737
7.741666666666667,-0.4149999999999751
7.7444444444444445,-0.608205080756856
7.747222222222223,-0.5882050807568933
7.75,-0.4150000000000498
7.752777777777778,-0.22679491924311102
7.7555555555555555,-0.23179491924309426
7.758333333333334,-0.4199999999999253
7.761111111111111,-0.6032050807568311
7.763888888888889,-0.5982050807569181
7.766666666666667,-0.41000000000009956
7.769444444444445,-0.23679491924313584
7.772222222222222,-0.23179491924306936
7.775,-0.41499999999996645
7.777777777777778,-0.5982050807568516
7.780555555555556,-0.5982050807568976
7.783333333333333,-0.4200000000000584
7.786111111111111,-0.23679491924311527
7.788888888888889,-0.23679491924308987
7.791666666666667,-0.41999999999991666
7.794444444444445,-0.6032050807568723
7.7972222222222225,-0.5982050807569226
7.800000000000001,-0.42000000000001725
7.802777777777778,-0.23179491924314022
7.805555555555556,-0.24179491924311047
7.808333333333334,-0.40999999999995784
7.811111111111112,-0.5832050807568928
7.813888888888889,-0.5582050807569019
7.816666666666667,-0.36999999999997607
7.819444444444445,-0.18679491924311958
7.822222222222223,-0.17679491924308557
7.825,-0.34999999999990805
7.827777777777778,-0.5232050807568679
7.830555555555556,-0.5082050807569268
7.833333333333334,-0.3200000000000259
7.836111111111111,-0.13179491924314451
7.8388888888888895,-0.1417949192431062
7.841666666666667,-0.31499999999994927
7.844444444444445,-0.4932050807568885
7.847222222222222,-0.47820508075690626
7.8500000000000005,-0.3049999999999847
7.852777777777778,-0.12179491924312391
7.855555555555556,-0.11679491924308127
7.858333333333333,-0.29499999999989945
7.861111111111112,-0.4682050807568636
7.863888888888889,-0.4582050807569311
7.866666666666667,-0.28500000000003445
7.8694444444444445,-0.09679491924314884
7.872222222222223,-0.10679491924310192
7.875,-0.27999999999994063
7.877777777777778,-0.4682050807568842
7.8805555555555555,-0.45320508075691057
7.883333333333334,-0.2849999999999933
7.886111111111111,-0.10179491924312825
7.888888888888889,-0.11179491924307697
7.891666666666667,-0.2949999999998908
7.894444444444445,-0.4782050807568593
7.897222222222222,-0.46820508075693545
7.9,-0.2850000000000431
7.902777777777778,-0.1117949192431531
7.905555555555556,-0.11679491924309754
7.908333333333333,-0.299999999999932
7.911111111111111,-0.4832050807568799
7.913888888888889,-0.46820508075691486
7.916666666666667,-0.30000000000000193
7.919444444444445,-0.11679491924313251
7.9222222222222225,-0.11179491924307267
7.925000000000001,-0.3049999999999731
7.927777777777778,-0.483205080756855
7.930555555555556,-0.47320508075689427
7.933333333333334,-0.2950000000000517
7.936111111111112,-0.13179491924311196
7.938888888888889,-0.12679491924309322
7.941666666666667,-0.3050000000000143
7.944444444444445,-0.4932050807568756
7.947222222222223,-0.4932050807569192
7.95,-0.3100000000000106
7.952777777777778,-0.12679491924313685
7.955555555555556,-0.13679491924306836
7.958333333333334,-0.31999999999996454
7.961111111111111,-0.5132050807568507
7.9638888888888895,-0.5032050807568986
7.966666666666667,-0.31000000000006034
7.969444444444445,-0.14179491924311627
7.972222222222222,-0.15179491924308894
7.9750000000000005,-0.32500000000000573
7.977777777777778,-0.5182050807568712
7.980555555555556,-0.5032050807569235
7.983333333333333,-0.3200000000000192
7.986111111111112,-0.14679491924314117
7.988888888888889,-0.16179491924306405
7.991666666666667,-0.33499999999995594
7.9944444444444445,-0.5282050807568464
7.997222222222223,-0.513205080756903
8.0,-0.320000000000069
8.002777777777778,-0.1417949192431206
8.005555555555556,-0.1567949192431301
8.008333333333333,-0.33999999999990616
8.011111111111111,-0.513205080756867
8.01388888888889,-0.5232050807569278
8.016666666666667,-0.3300000000000278
8.019444444444444,-0.1567949192431455
8.022222222222222,-0.16679491924305975
8.025,-0.34999999999994724
8.027777777777779,-0.5282050807568875
8.030555555555555,-0.5182050807569527
8.033333333333333,-0.3350000000000776
8.036111111111111,-0.16179491924312492
8.03888888888889,-0.1667949192431258
8.041666666666668,-0.3399999999999885
8.044444444444444,-0.5182050807568627
8.047222222222222,-0.5082050807569322
8.05,-0.3350000000000365
8.052777777777779,-0.15179491924310434
8.055555555555555,-0.15179491924305544
8.058333333333334,-0.3349999999999387
8.061111111111112,-0.5132050807568833
8.06388888888889,-0.5132050807568661
8.066666666666666,-0.32000000000008627
8.069444444444445,-0.1417949192431292
8.072222222222223,-0.1467949192431215
8.075000000000001,-0.3349999999999798
8.077777777777778,-0.5082050807568583
8.080555555555556,-0.4932050807569365
8.083333333333334,-0.3250000000000451
8.086111111111112,-0.14179491924310864
8.088888888888889,-0.14679491924305113
8.091666666666667,-0.31999999999993006
8.094444444444445,-0.5182050807568789
8.097222222222223,-0.5082050807568704
8.1,-0.3200000000000949
8.102777777777778,-0.13679491924313353
8.105555555555556,-0.14679491924311716
8.108333333333334,-0.3199999999999712
8.11111111111111,-0.513205080756854
8.113888888888889,-0.5032050807569408
8.116666666666667,-0.3200000000000537
8.119444444444445,-0.13679491924311293
8.122222222222222,-0.1367949192430468
8.125,-0.3099999999999214
8.127777777777778,-0.4682050807568746
8.130555555555556,-0.4532050807568747
8.133333333333333,-0.2550000000001035
8.136111111111111,-0.07679491924313783
8.13888888888889,-0.07679491924311285
8.141666666666667,-0.2549999999999626
8.144444444444444,-0.4332050807568497
8.147222222222222,-0.41320508075694506
8.15,-0.2200000000000623
8.152777777777779,-0.05679491924311725
8.155555555555555,-0.0567949192430425
8.158333333333333,-0.2149999999999128
8.161111111111111,-0.39320508075687033
8.16388888888889,-0.398205080756879
8.166666666666668,-0.23000000000002116
8.169444444444444,-0.05679491924314217
8.172222222222222,-0.06179491924310854
8.175,-0.24499999999995395
8.177777777777779,-0.4282050807568909
8.180555555555555,-0.4132050807569494
8.183333333333334,-0.23500000000007093
8.186111111111112,-0.07179491924312156
8.18888888888889,-0.061794919243129104
8.191666666666666,-0.22999999999990417
8.194444444444445,-0.393205080756866
8.197222222222223,-0.36820508075688335
8.200000000000001,-0.22000000000002978
8.202777777777778,-0.07179491924314646
8.205555555555556,-0.08679491924310423
8.208333333333334,-0.26999999999994534
8.211111111111112,-0.46320508075688654
8.213888888888889,-0.47320508075695367
8.216666666666667,-0.30500000000007954
8.219444444444445,-0.13179491924312586
8.222222222222223,-0.14679491924312482
8.225,-0.32999999999989554
8.227777777777778,-0.5232050807568617
8.230555555555556,-0.5232050807568877
8.233333333333334,-0.33500000000003843
8.23611111111111,-0.1617949192431508
8.238888888888889,-0.16179491924309994
8.241666666666667,-0.33999999999993674
8.244444444444445,-0.5232050807568822
8.247222222222222,-0.5232050807569579
8.25,-0.3450000000000882
8.252777777777778,-0.16179491924313022
8.255555555555556,-0.17179491924312046
8.258333333333333,-0.3549999999998869
8.261111111111111,-0.5432050807568574
8.26388888888889,-0.523205080756892
8.266666666666667,-0.345000000000047
8.269444444444444,-0.1617949192431551
8.272222222222222,-0.1617949192430956
8.275,-0.3349999999999281
8.277777777777779,-0.5282050807568779
8.280555555555555,-0.5282050807569623
8.283333333333333,-0.3450000000000968
8.286111111111111,-0.18179491924313448
8.28888888888889,-0.2217949192431162
8.291666666666668,-0.4500000000000602
8.294444444444444,-0.653205080756853
8.297222222222222,-0.6782050807568962
8.3,-0.5250000000000556
8.302777777777779,-0.3717949192431139
8.305555555555555,-0.3267949192430913
8.308333333333334,-0.39499999999991947
8.311111111111112,-0.42820508075687364
8.31388888888889,-0.2432050807568757
8.316666666666666,0.14499999999989455
8.319444444444445,0.5982050807568612
8.322222222222223,0.8582050807568882
8.325000000000001,0.8749999999999485
8.327777777777778,0.7517949192431513
8.330555555555556,0.6217949192430995
8.333333333333334,0.4699999999999357
8.336111111111112,0.19320508075688175
8.338888888888889,-0.151794919243087
8.341666666666667,-0.4699999999999108
8.344444444444445,-0.6582050807568693
8.347222222222223,-0.58320508075688
8.35,-0.36500000000011407
8.352777777777778,-0.18179491924314312
8.355555555555556,-0.19179491924310754
8.358333333333334,-0.3800000000000429
8.36111111111111,-0.5582050807568444
8.363888888888889,-0.5532050807569049
8.366666666666667,-0.3700000000000729
8.369444444444445,-0.19679491924312253
8.372222222222222,-0.2017949192430372
8.375,-0.3849999999999022
8.377777777777778,-0.568205080756865
8.380555555555556,-0.5582050807568844
8.383333333333333,-0.3800000000001227
8.386111111111111,-0.21179491924314744
8.38888888888889,-0.20179491924310325
8.391666666666667,-0.3900000000000343
8.394444444444444,-0.5782050807568402
8.397222222222222,-0.5782050807569092
8.4,-0.39000000000008156
8.402777777777779,-0.21179491924312688
8.405555555555555,-0.2117949192430329
8.408333333333333,-0.3899999999998936
8.411111111111111,-0.5832050807568607
8.41388888888889,-0.5732050807568887
8.416666666666668,-0.38999999999994944
8.419444444444444,-0.21179491924315175
8.422222222222222,-0.21179491924309893
8.425,-0.3950000000000257
8.427777777777779,-0.5632050807568812
8.430555555555555,-0.5682050807569136
8.433333333333334,-0.38000000000009015
8.436111111111112,-0.20179491924313117
8.43888888888889,-0.20679491924311952
8.441666666666666,-0.38499999999988493
8.444444444444445,-0.5732050807568564
8.447222222222223,-0.5582050807568929
8.450000000000001,-0.37999999999995804
8.452777777777778,-0.20179491924315607
8.455555555555556,-0.20679491924309462
8.458333333333334,-0.39500000000001706
8.461111111111112,-0.568205080756877
8.463888888888889,-0.5582050807569179
8.466666666666667,-0.37500000000009875
8.469444444444445,-0.19679491924313547
8.472222222222223,-0.1917949192431152
8.475,-0.38499999999987633
8.477777777777778,-0.568205080756852
8.480555555555556,-0.5582050807568972
8.483333333333334,-0.3849999999999667
8.48611111111111,-0.1967949192431604
8.488888888888889,-0.20179491924309031
8.491666666666667,-0.3699999999999175
8.494444444444445,-0.5482050807568727
8.497222222222222,-0.5482050807569221
8.5,-0.3700000000001074
8.502777777777778,-0.18179491924313979
8.505555555555556,-0.19179491924311087
8.508333333333333,-0.3799999999998677
8.511111111111111,-0.5482050807568477
8.51388888888889,-0.5432050807569015
8.516666666666667,-0.3799999999999753
8.519444444444444,-0.1917949192431647
8.522222222222222,-0.196794919243086
8.525,-0.37499999999990885
8.527777777777779,-0.5632050807568684
8.530555555555555,-0.5532050807569264
8.533333333333333,-0.375000000000116
8.536111111111111,-0.2067949192431441
8.53888888888889,-0.19679491924310658
8.541666666666668,-0.37500000000004097
8.544444444444444,-0.5532050807568435
8.547222222222222,-0.5582050807569059
8.55,-0.3849999999999839
8.552777777777779,-0.19679491924312353
8.555555555555555,-0.20179491924308168
8.558333333333334,-0.37499999999990025
8.561111111111112,-0.553205080756864
8.56388888888889,-0.5532050807568853
8.566666666666666,-0.3800000000001247
8.569444444444445,-0.2067949192431484
8.572222222222223,-0.20179491924310228
8.575000000000001,-0.3900000000000324
8.577777777777778,-0.5682050807568392
8.580555555555556,-0.5582050807569102
8.583333333333334,-0.38499999999999257
8.586111111111112,-0.20179491924312784
8.588888888888889,-0.20179491924307735
8.591666666666667,-0.3849999999998916
8.594444444444445,-0.5582050807568597
8.597222222222223,-0.5632050807568896
8.6,-0.3700000000001333
8.602777777777778,-0.19179491924315273
8.605555555555556,-0.19179491924309794
8.608333333333334,-0.3750000000000237
8.61111111111111,-0.5582050807568348
8.613888888888889,-0.5232050807569144
8.616666666666667,-0.34500000000000114
8.619444444444445,-0.15179491924313215
8.622222222222222,-0.15179491924307306
8.625,-0.329999999999883
8.627777777777778,-0.49820508075685543
8.630555555555556,-0.4982050807568939
8.633333333333333,-0.3150000000001419
8.636111111111111,-0.14179491924315704
8.63888888888889,-0.14179491924309365
8.641666666666667,-0.3000000000000151
8.644444444444444,-0.4732050807568305
8.647222222222222,-0.4582050807569188
8.65,-0.2700000000000098
8.652777777777779,-0.09179491924313649
8.655555555555555,-0.08679491924306876
8.658333333333333,-0.2749999999998744
8.661111111111111,-0.45820508075685107
8.66388888888889,-0.43820508075689824
8.666666666666668,-0.25499999999996864
8.669444444444444,-0.07679491924316137
8.672222222222222,-0.09679491924308936
8.675,-0.2800000000000065
8.677777777777779,-0.45820508075687166
8.680555555555555,-0.4582050807569231
8.683333333333334,-0.28000000000001846
8.686111111111112,-0.09679491924314079
8.68888888888889,-0.09679491924310993
8.691666666666666,-0.26999999999986574
8.694444444444445,-0.45820508075684674
8.697222222222223,-0.4532050807569026
8.700000000000001,-0.27499999999997726
8.702777777777778,-0.09679491924316569
8.705555555555556,-0.09179491924308503
8.708333333333334,-0.27499999999999786
8.711111111111112,-0.46320508075686734
8.713888888888889,-0.4582050807569274
8.716666666666667,-0.285000000000027
8.719444444444445,-0.1017949192431451
8.722222222222223,-0.09679491924310563
8.725,-0.27999999999985714
8.727777777777778,-0.4682050807568424
8.730555555555556,-0.4532050807569069
8.733333333333334,-0.2699999999999859
8.73611111111111,-0.09679491924316999
8.738888888888889,-0.10179491924308073
8.741666666666667,-0.2849999999999892
8.744444444444445,-0.473205080756863
8.747222222222222,-0.46820508075693174
8.75,-0.2900000000000356
8.752777777777778,-0.12179491924314939
8.755555555555556,-0.12679491924310127
8.758333333333333,-0.2899999999998485
8.761111111111111,-0.47820508075683815
8.76388888888889,-0.46820508075691114
8.766666666666667,-0.2899999999999945
8.769444444444444,-0.12179491924317426
8.772222222222222,-0.11679491924307636
8.775,-0.3099999999999806
8.777777777777779,-0.49320508075685876
8.780555555555555,-0.488205080756936
8.783333333333333,-0.3150000000000443
8.786111111111111,-0.1267949192431537
8.78888888888889,-0.13179491924309697
8.791666666666668,-0.31500000000002176
8.794444444444444,-0.5032050807568338
8.797222222222222,-0.4932050807569155
8.8,-0.3050000000000031
8.802777777777779,-0.14179491924308765
8.805555555555555,-0.13179491924307207
8.808333333333334,-0.31499999999997197
8.811111111111112,-0.49820508075685443
8.81388888888889,-0.4832050807568949
8.816666666666666,-0.2950000000000529
8.819444444444445,-0.12679491924315803
8.822222222222223,-0.13179491924309267
8.825000000000001,-0.31000000000001315
8.827777777777778,-0.49820508075682957
8.830555555555556,-0.4882050807569198
8.833333333333334,-0.31500000000001177
8.836111111111112,-0.13179491924309197
8.838888888888889,-0.13179491924306777
8.841666666666667,-0.3249999999999634
8.844444444444445,-0.4932050807568501
